⸮⸮⸮⸮⸮⸮⸮⸮⸮⸮⸮⸮⸮⸮⸮⸮⸮⸮⸮⸮⸮⸮⸮⸮⸮⸮⸮⸮⸮⸮⸮⸮⸮300	2
300	4
300	6
299	8
299	10
298	12
298	14
297	16
298	18
296	20
295	22
294	24
292	26
291	28
289	30
289	32
288	34
289	36
290	38
292	40
294	43
297	45
299	47
302	49
306	51
309	53
311	55
312	57
311	59
310	61
308	63
306	65
304	67
301	69
300	71
298	73
297	75
296	77
296	79
296	81
296	83
296	86
296	88
296	90
296	92
296	94
295	96
296	98
296	100
296	102
296	104
296	106
296	108
296	110
296	112
296	114
296	116
296	118
296	120
296	122
297	124
297	126
297	128
297	130
297	132
297	134
297	136
298	138
298	140
298	142
298	144
298	146
298	148
298	150
299	152
298	154
299	156
299	158
299	160
299	162
299	164
299	166
300	168
300	171
300	173
301	175
301	177
301	179
301	181
301	183
302	185
302	187
302	189
302	191
302	193
302	195
302	197
303	199
303	201
303	203
304	205
304	207
303	209
304	211
304	214
304	216
304	218
305	220
305	222
305	224
305	226
305	228
305	230
304	232
305	234
305	236
305	238
305	240
305	242
306	244
305	246
305	248
306	250
306	252
306	254
306	256
306	258
307	260
306	262
307	264
307	266
307	268
308	270
308	272
308	274
309	276
308	278
309	280
309	282
309	284
310	286
310	288
310	290
310	292
310	294
310	296
310	299
310	301
310	303
310	305
310	307
310	309
309	311
309	313
309	315
309	317
309	319
309	321
309	323
309	325
308	327
308	329
308	331
308	333
308	335
308	337
307	339
307	342
307	344
307	346
307	348
306	350
307	352
307	354
307	356
307	358
306	360
306	362
306	364
306	366
306	368
306	370
306	372
306	374
306	376
306	378
306	380
305	382
305	384
305	386
306	388
305	390
305	392
305	394
305	396
304	398
305	400
305	402
305	404
305	406
305	408
305	410
305	412
306	414
306	416
307	418
308	420
308	422
308	424
308	427
309	429
309	431
309	433
310	435
310	437
311	439
311	441
311	443
312	445
312	447
313	449
313	451
313	453
314	455
314	457
314	459
314	461
314	463
314	465
314	467
314	470
314	472
314	474
313	476
313	478
312	480
312	482
312	484
311	486
311	488
310	490
310	492
309	494
308	496
307	498
307	500
306	502
306	504
305	506
305	508
304	510
303	512
303	514
302	516
302	518
302	520
301	522
301	524
300	526
299	528
299	530
298	532
298	534
298	536
298	538
297	540
296	542
296	544
296	546
295	548
296	550
296	552
295	555
294	557
293	559
291	561
290	563
289	565
288	567
288	569
288	571
289	573
290	575
292	577
294	579
296	581
300	583
303	585
306	587
309	589
310	591
311	593
311	595
309	598
307	600
305	602
303	604
300	606
298	608
296	610
295	612
293	614
293	616
293	618
293	620
292	622
292	624
292	626
292	628
292	630
292	632
292	634
292	636
292	638
292	640
292	642
292	644
292	646
292	648
292	650
293	652
293	654
293	656
293	658
293	660
293	662
293	664
293	666
294	668
294	670
294	672
294	674
294	676
294	678
294	680
295	683
295	685
295	687
295	689
296	691
296	693
296	695
296	697
296	699
296	701
297	703
297	705
297	707
297	709
297	711
298	713
298	715
298	717
298	719
299	721
299	723
299	726
299	728
299	730
299	732
299	734
300	736
300	738
301	740
300	742
301	744
301	746
300	748
301	750
301	752
301	754
302	756
301	758
302	760
301	762
301	764
301	766
302	768
302	770
302	772
302	774
302	776
302	778
302	780
302	782
302	784
303	786
303	788
303	790
303	792
303	794
303	796
303	798
303	800
304	802
304	804
305	806
305	808
305	811
306	813
305	815
306	817
306	819
307	821
307	823
307	825
307	827
307	829
307	831
307	833
308	835
308	837
308	839
308	841
307	843
307	845
307	847
307	849
307	851
307	854
307	856
306	858
306	860
306	862
305	864
305	866
305	868
305	870
305	872
305	874
305	876
304	878
304	880
304	882
304	884
304	886
304	888
304	890
304	892
304	894
304	896
303	898
304	900
303	902
303	904
304	906
303	908
303	910
303	912
303	914
303	916
303	918
303	920
303	922
303	924
303	926
303	928
303	930
303	932
303	934
303	936
303	939
303	941
303	943
303	945
302	947
302	949
302	951
303	953
303	955
303	957
303	959
302	961
302	963
303	965
303	967
303	969
303	971
304	973
304	975
304	977
304	979
305	982
306	984
306	986
306	988
307	990
307	992
307	994
308	996
308	998
308	1000
309	1002
309	1004
310	1006
310	1008
310	1010
310	1012
311	1014
311	1016
311	1018
311	1020
311	1022
311	1024
311	1026
312	1028
311	1030
311	1032
311	1034
311	1036
311	1038
310	1040
309	1042
309	1044
308	1046
307	1048
307	1050
306	1052
305	1054
305	1056
304	1058
304	1060
302	1062
302	1064
301	1067
301	1069
300	1071
300	1073
299	1075
298	1077
298	1079
297	1081
297	1083
296	1085
296	1087
296	1089
295	1091
295	1093
294	1095
294	1097
294	1099
293	1101
293	1103
293	1105
293	1107
292	1110
292	1112
291	1114
290	1116
288	1118
288	1120
287	1122
286	1124
286	1126
286	1128
286	1130
288	1132
290	1134
293	1136
295	1138
298	1140
302	1142
304	1144
307	1146
309	1148
310	1150
309	1152
309	1154
308	1156
305	1158
303	1160
300	1162
297	1164
295	1166
294	1168
293	1170
292	1172
291	1174
291	1176
291	1178
290	1180
290	1182
290	1184
290	1186
290	1188
290	1190
290	1192
290	1195
290	1197
290	1199
290	1201
290	1203
290	1205
290	1207
290	1209
290	1211
290	1213
290	1215
291	1217
291	1219
291	1221
291	1223
291	1225
291	1227
291	1229
291	1231
292	1233
292	1235
292	1238
293	1240
293	1242
293	1244
293	1246
293	1248
293	1250
293	1252
294	1254
294	1256
294	1258
295	1260
295	1262
295	1264
295	1266
295	1268
295	1270
296	1272
296	1274
296	1276
296	1278
296	1280
296	1282
297	1284
297	1286
297	1288
297	1290
297	1292
297	1294
298	1296
298	1298
298	1300
299	1302
298	1304
299	1306
299	1308
299	1310
299	1312
299	1314
299	1316
299	1318
300	1320
300	1323
300	1325
300	1327
300	1329
300	1331
300	1333
300	1335
301	1337
301	1339
301	1341
301	1343
301	1345
301	1347
301	1349
301	1351
302	1353
302	1355
302	1357
302	1359
302	1361
303	1363
302	1366
303	1368
303	1370
304	1372
304	1374
304	1376
304	1378
304	1380
304	1382
305	1384
305	1386
305	1388
305	1390
305	1392
305	1394
305	1396
305	1398
305	1400
305	1402
305	1404
305	1406
305	1408
305	1410
304	1412
304	1414
304	1416
303	1418
304	1420
303	1422
303	1424
303	1426
303	1428
303	1430
303	1432
302	1434
303	1436
303	1438
302	1440
302	1442
302	1444
301	1446
302	1448
301	1451
302	1453
302	1455
301	1457
301	1459
301	1461
301	1463
301	1465
300	1467
301	1469
301	1471
301	1473
301	1475
300	1477
300	1479
300	1481
300	1483
300	1485
300	1487
300	1489
300	1491
300	1494
300	1496
300	1498
300	1500
300	1502
300	1504
300	1506
300	1508
300	1510
299	1512
299	1514
299	1516
299	1518
299	1520
299	1522
299	1524
299	1526
299	1528
299	1530
298	1532
299	1534
298	1536
299	1538
298	1540
298	1542
298	1544
298	1546
298	1548
298	1550
298	1552
298	1554
298	1556
298	1558
298	1560
298	1562
298	1564
298	1566
298	1568
299	1570
299	1572
300	1574
300	1576
301	1579
301	1581
301	1583
302	1585
303	1587
303	1589
303	1591
304	1593
304	1595
304	1597
305	1599
305	1601
306	1603
306	1605
307	1607
307	1609
307	1611
307	1613
307	1615
307	1617
307	1619
308	1622
308	1624
307	1626
307	1628
307	1630
306	1632
306	1634
306	1636
305	1638
305	1640
305	1642
304	1644
303	1646
303	1648
302	1650
301	1652
301	1654
300	1656
300	1658
299	1660
298	1662
298	1664
297	1666
297	1668
296	1670
296	1672
296	1674
295	1676
295	1678
294	1680
293	1682
293	1684
293	1686
293	1688
293	1690
292	1692
292	1694
291	1696
291	1698
291	1700
291	1702
291	1704
290	1707
289	1709
288	1711
287	1713
286	1715
285	1717
284	1719
284	1721
285	1723
285	1725
287	1727
289	1729
292	1731
295	1733
299	1735
303	1737
306	1739
309	1741
311	1743
312	1745
312	1747
310	1750
308	1752
306	1754
303	1756
300	1758
298	1760
296	1762
295	1764
295	1766
294	1768
294	1770
293	1772
293	1774
293	1776
292	1778
292	1780
292	1782
291	1784
291	1786
291	1788
291	1790
291	1792
290	1794
290	1796
290	1798
290	1800
290	1802
290	1804
290	1806
290	1808
290	1810
289	1812
289	1814
289	1816
290	1818
290	1820
290	1822
290	1824
290	1826
290	1828
290	1830
290	1832
290	1835
291	1837
291	1839
291	1841
291	1843
291	1845
291	1847
291	1849
291	1851
292	1853
292	1855
292	1857
292	1859
292	1861
293	1863
292	1865
293	1867
293	1869
293	1871
293	1873
294	1875
294	1878
294	1880
294	1882
294	1884
294	1886
295	1888
295	1890
295	1892
295	1894
295	1896
295	1898
296	1900
296	1902
296	1904
297	1906
297	1908
297	1910
297	1912
296	1914
297	1916
297	1918
297	1920
297	1922
298	1924
298	1926
298	1928
298	1930
298	1932
298	1934
299	1936
299	1938
299	1940
299	1942
299	1944
299	1946
299	1948
300	1950
300	1952
300	1954
301	1956
301	1958
301	1960
301	1963
301	1965
302	1967
302	1969
302	1971
303	1973
303	1975
303	1977
303	1979
303	1981
303	1983
303	1985
303	1987
304	1989
304	1991
303	1993
303	1995
303	1997
303	1999
303	2001
303	2003
303	2006
303	2008
302	2010
302	2012
302	2014
301	2016
301	2018
301	2020
301	2022
301	2024
301	2026
300	2028
300	2030
300	2032
300	2034
300	2036
300	2038
299	2040
299	2042
299	2044
299	2046
299	2048
299	2050
299	2052
299	2054
299	2056
299	2058
299	2060
298	2062
298	2064
298	2066
298	2068
298	2070
298	2072
298	2074
298	2076
298	2078
298	2080
298	2082
298	2084
298	2086
298	2088
298	2091
298	2093
297	2095
297	2097
297	2099
297	2101
297	2103
297	2105
297	2107
298	2109
297	2111
297	2113
297	2115
296	2117
297	2119
297	2121
297	2123
297	2125
296	2127
296	2129
296	2131
296	2134
296	2136
296	2138
296	2140
296	2142
296	2144
295	2146
295	2148
295	2150
295	2152
295	2154
295	2156
295	2158
295	2160
295	2162
295	2164
295	2166
295	2168
295	2170
295	2172
295	2174
295	2176
295	2178
295	2180
295	2182
295	2184
295	2186
295	2188
295	2190
295	2192
295	2194
295	2196
295	2198
295	2200
295	2202
295	2204
295	2206
296	2208
295	2210
295	2212
295	2214
295	2216
295	2219
295	2221
296	2223
296	2225
296	2227
297	2229
297	2231
297	2233
298	2235
299	2237
299	2239
300	2241
300	2243
300	2245
300	2247
301	2249
302	2251
302	2253
303	2255
303	2257
303	2259
303	2262
304	2264
304	2266
304	2268
305	2270
305	2272
305	2274
305	2276
305	2278
305	2280
305	2282
305	2284
305	2286
305	2288
305	2290
304	2292
304	2294
303	2296
303	2298
302	2300
302	2302
302	2304
302	2306
301	2308
300	2310
300	2312
299	2314
298	2316
298	2318
297	2320
297	2322
296	2324
296	2326
295	2328
294	2330
294	2332
294	2334
293	2336
293	2338
293	2340
292	2342
292	2344
291	2347
290	2349
290	2351
290	2353
290	2355
290	2357
289	2359
289	2361
288	2363
288	2365
287	2367
286	2369
285	2371
284	2373
282	2375
282	2377
282	2379
281	2381
282	2383
284	2385
286	2387
289	2390
292	2392
296	2394
299	2396
303	2398
306	2400
308	2402
310	2404
310	2406
309	2408
307	2410
305	2412
302	2414
300	2416
298	2418
296	2420
296	2422
295	2424
294	2426
294	2428
293	2430
293	2432
293	2434
293	2436
293	2438
293	2440
292	2442
292	2444
292	2446
292	2448
291	2450
291	2452
292	2454
292	2456
292	2458
291	2460
291	2462
291	2464
291	2466
291	2468
291	2470
291	2472
291	2475
292	2477
291	2479
291	2481
292	2483
292	2485
292	2487
292	2489
293	2491
292	2493
292	2495
293	2497
292	2499
293	2501
293	2503
293	2505
294	2507
294	2509
294	2511
294	2513
294	2515
295	2518
295	2520
295	2522
295	2524
295	2526
295	2528
295	2530
295	2532
296	2534
296	2536
296	2538
297	2540
297	2542
297	2544
297	2546
297	2548
297	2550
297	2552
297	2554
298	2556
298	2558
298	2560
298	2562
298	2564
298	2566
298	2568
299	2570
299	2572
299	2574
299	2576
299	2578
299	2580
299	2582
299	2584
300	2586
300	2588
300	2590
300	2592
300	2594
300	2596
301	2598
300	2600
301	2603
301	2605
301	2607
302	2609
301	2611
301	2613
301	2615
302	2617
302	2619
302	2621
303	2623
303	2625
303	2627
303	2629
303	2631
303	2633
303	2635
304	2637
304	2639
304	2641
304	2643
304	2646
304	2648
304	2650
304	2652
304	2654
304	2656
304	2658
303	2660
303	2662
302	2664
302	2666
302	2668
302	2670
302	2672
302	2674
301	2676
300	2678
300	2680
300	2682
300	2684
300	2686
300	2688
299	2690
299	2692
299	2694
298	2696
298	2698
298	2700
297	2702
298	2704
297	2706
297	2708
297	2710
297	2712
297	2714
296	2716
296	2718
297	2720
296	2722
296	2724
296	2726
296	2728
296	2731
296	2733
296	2735
296	2737
296	2739
296	2741
296	2743
296	2745
296	2747
295	2749
295	2751
296	2753
296	2755
295	2757
296	2759
295	2761
295	2763
295	2765
295	2767
295	2769
295	2771
295	2774
295	2776
295	2778
295	2780
294	2782
294	2784
294	2786
294	2788
294	2790
295	2792
294	2794
294	2796
294	2798
294	2800
294	2802
294	2804
294	2806
294	2808
294	2810
293	2812
294	2814
293	2816
293	2818
293	2820
293	2822
293	2824
293	2826
293	2828
293	2830
293	2832
293	2834
293	2836
293	2838
293	2840
293	2842
293	2844
292	2846
292	2848
292	2850
292	2852
292	2854
292	2856
292	2859
292	2861
291	2863
291	2865
291	2867
291	2869
292	2871
291	2873
291	2875
291	2877
291	2879
291	2881
291	2883
291	2885
291	2887
291	2889
291	2891
291	2893
290	2895
290	2897
291	2899
291	2902
291	2904
291	2906
291	2908
291	2910
290	2912
290	2914
290	2916
290	2918
290	2920
290	2922
290	2924
290	2926
289	2928
289	2930
289	2932
289	2934
289	2936
289	2938
290	2940
290	2942
290	2944
290	2946
291	2948
291	2950
291	2952
292	2954
292	2956
292	2958
292	2960
293	2962
293	2964
293	2966
294	2968
294	2970
295	2972
295	2974
295	2976
296	2978
296	2980
296	2982
297	2984
297	2987
297	2989
298	2991
298	2993
298	2995
298	2997
298	2999
298	3001
298	3003
299	3005
299	3007
299	3009
298	3011
298	3013
297	3015
297	3017
296	3019
296	3021
296	3023
295	3025
295	3027
294	3030
294	3032
293	3034
293	3036
293	3038
293	3040
292	3042
291	3044
291	3046
290	3048
290	3050
290	3052
289	3054
289	3056
289	3058
289	3060
288	3062
288	3064
288	3066
287	3068
287	3070
288	3072
288	3074
288	3076
287	3078
287	3080
287	3082
286	3084
287	3086
286	3088
285	3090
284	3092
283	3094
282	3096
281	3098
281	3100
282	3102
283	3104
285	3106
288	3108
291	3110
293	3112
297	3115
300	3117
304	3119
306	3121
308	3123
309	3125
308	3127
307	3129
305	3131
302	3133
300	3135
297	3137
296	3139
294	3141
293	3143
292	3145
292	3147
291	3149
291	3151
291	3153
291	3155
291	3158
291	3160
290	3162
290	3164
290	3166
290	3168
290	3170
290	3172
291	3174
290	3176
290	3178
290	3180
290	3182
290	3184
290	3186
290	3188
290	3190
290	3192
290	3194
290	3196
290	3198
290	3200
290	3202
291	3204
291	3206
291	3208
291	3210
291	3212
291	3214
291	3216
291	3218
292	3220
292	3222
292	3224
292	3226
292	3228
292	3230
292	3232
293	3234
293	3236
294	3238
294	3240
294	3243
294	3245
294	3247
294	3249
294	3251
295	3253
295	3255
295	3257
296	3259
295	3261
296	3263
296	3265
296	3267
296	3269
296	3271
296	3273
296	3275
296	3277
297	3279
297	3281
296	3283
297	3286
297	3288
297	3290
298	3292
297	3294
297	3296
298	3298
298	3300
298	3302
298	3304
298	3306
299	3308
299	3310
299	3312
299	3314
299	3316
300	3318
300	3320
300	3322
301	3324
301	3326
300	3328
301	3330
301	3332
301	3334
301	3336
302	3338
302	3340
302	3342
303	3344
303	3346
303	3348
303	3350
303	3352
304	3354
304	3356
304	3358
305	3360
305	3362
305	3364
305	3366
305	3368
305	3371
305	3373
305	3375
305	3377
305	3379
304	3381
304	3383
304	3385
304	3387
304	3389
303	3391
303	3393
303	3395
302	3397
302	3399
302	3401
302	3403
301	3405
301	3407
301	3409
300	3411
300	3414
299	3416
299	3418
299	3420
299	3422
299	3424
299	3426
299	3428
298	3430
298	3432
298	3434
298	3436
298	3438
298	3440
298	3442
298	3444
298	3446
297	3448
298	3450
297	3452
298	3454
297	3456
297	3458
297	3460
297	3462
297	3464
297	3466
297	3468
297	3470
298	3472
297	3474
297	3476
297	3478
297	3480
297	3482
297	3484
297	3486
297	3488
297	3490
297	3492
297	3494
297	3496
296	3499
296	3501
296	3503
297	3505
297	3507
297	3509
296	3511
296	3513
296	3515
296	3517
296	3519
296	3521
296	3523
296	3525
296	3527
296	3529
295	3531
296	3533
296	3535
296	3537
296	3539
295	3542
295	3544
295	3546
295	3548
295	3550
295	3552
295	3554
295	3556
295	3558
295	3560
295	3562
295	3564
295	3566
295	3568
295	3570
295	3572
295	3574
295	3576
295	3578
295	3580
295	3582
295	3584
295	3586
295	3588
295	3590
295	3592
295	3594
295	3596
295	3598
294	3600
295	3602
295	3604
295	3606
295	3608
295	3610
295	3612
294	3614
294	3616
295	3618
294	3620
295	3622
295	3624
295	3627
295	3629
295	3631
295	3633
296	3635
296	3637
297	3639
297	3641
297	3643
298	3645
298	3647
298	3649
299	3651
299	3653
300	3655
300	3657
300	3659
300	3661
301	3663
301	3665
301	3667
301	3670
302	3672
303	3674
302	3676
303	3678
303	3680
302	3682
303	3684
303	3686
303	3688
304	3690
303	3692
303	3694
303	3696
302	3698
302	3700
302	3702
302	3704
301	3706
301	3708
301	3710
300	3712
300	3714
299	3716
298	3718
298	3720
298	3722
298	3724
297	3726
297	3728
296	3730
296	3732
295	3734
295	3736
295	3738
294	3740
295	3742
294	3744
294	3746
293	3748
293	3750
293	3752
293	3755
293	3757
293	3759
293	3761
292	3763
292	3765
292	3767
292	3769
291	3771
290	3773
289	3775
288	3777
288	3779
287	3781
287	3783
287	3785
288	3787
290	3789
292	3791
295	3793
298	3795
301	3798
304	3800
307	3802
310	3804
312	3806
313	3808
313	3810
312	3812
310	3814
307	3816
305	3818
302	3820
300	3822
298	3824
296	3826
295	3828
294	3830
293	3832
293	3834
293	3836
292	3838
292	3840
292	3842
292	3844
291	3846
291	3848
291	3850
290	3852
291	3854
291	3856
291	3858
291	3860
291	3862
290	3864
290	3866
290	3868
291	3870
291	3872
291	3874
291	3876
291	3878
291	3880
291	3883
291	3885
291	3887
292	3889
291	3891
292	3893
292	3895
292	3897
292	3899
292	3901
292	3903
292	3905
293	3907
293	3909
292	3911
292	3913
293	3915
292	3917
293	3919
294	3921
294	3923
294	3926
294	3928
294	3930
294	3932
295	3934
295	3936
295	3938
296	3940
296	3942
296	3944
296	3946
296	3948
296	3950
297	3952
297	3954
297	3956
298	3958
298	3960
298	3962
298	3964
298	3966
298	3968
298	3970
299	3972
299	3974
300	3976
299	3978
299	3980
300	3982
300	3984
300	3986
300	3988
301	3990
301	3992
301	3994
301	3996
301	3998
301	4000
302	4002
302	4004
302	4006
302	4008
302	4011
302	4013
302	4015
302	4017
302	4019
302	4021
303	4023
303	4025
303	4027
303	4029
303	4031
304	4033
304	4035
304	4037
304	4039
304	4041
304	4043
304	4045
304	4047
304	4049
304	4051
304	4054
304	4056
304	4058
304	4060
303	4062
303	4064
302	4066
302	4068
302	4070
302	4072
302	4074
302	4076
301	4078
301	4080
301	4082
300	4084
300	4086
300	4088
300	4090
300	4092
299	4094
299	4096
298	4098
298	4100
298	4102
298	4104
298	4106
298	4108
297	4110
297	4112
297	4114
296	4116
297	4118
296	4120
297	4122
297	4124
297	4126
296	4128
296	4130
296	4132
296	4134
296	4136
296	4139
296	4141
296	4143
296	4145
296	4147
296	4149
295	4151
296	4153
296	4155
296	4157
296	4159
296	4161
296	4163
296	4165
296	4167
296	4169
296	4171
296	4173
296	4175
296	4177
296	4179
296	4182
296	4184
296	4186
296	4188
296	4190
296	4192
296	4194
296	4196
296	4198
296	4200
296	4202
296	4204
296	4206
296	4208
296	4210
296	4212
296	4214
296	4216
296	4218
295	4220
296	4222
296	4224
296	4226
295	4228
296	4230
295	4232
295	4234
295	4236
295	4238
295	4240
295	4242
295	4244
295	4246
295	4248
295	4250
295	4252
295	4254
295	4256
295	4258
295	4260
294	4262
294	4264
294	4267
294	4269
294	4271
294	4273
294	4275
294	4277
294	4279
294	4281
294	4283
295	4285
295	4287
295	4289
296	4291
296	4293
296	4295
297	4297
297	4299
297	4301
298	4303
298	4305
299	4307
300	4310
300	4312
300	4314
300	4316
301	4318
301	4320
301	4322
301	4324
301	4326
302	4328
302	4330
302	4332
302	4334
302	4336
303	4338
303	4340
303	4342
303	4344
303	4346
303	4348
303	4350
302	4352
302	4354
302	4356
302	4358
301	4360
301	4362
300	4364
300	4366
299	4368
299	4370
299	4372
298	4374
298	4376
297	4378
297	4380
296	4382
296	4384
296	4386
295	4388
295	4390
295	4392
294	4395
294	4397
294	4399
293	4401
293	4403
293	4405
293	4407
293	4409
292	4411
292	4413
292	4415
292	4417
292	4419
292	4421
291	4423
291	4425
290	4427
289	4429
288	4431
287	4433
287	4435
287	4438
287	4440
288	4442
289	4444
291	4446
294	4448
296	4450
299	4452
303	4454
305	4456
308	4458
310	4460
311	4462
311	4464
310	4466
309	4468
307	4470
304	4472
302	4474
299	4476
297	4478
296	4480
295	4482
293	4484
293	4486
292	4488
292	4490
292	4492
291	4494
291	4496
291	4498
290	4500
290	4502
290	4504
290	4506
290	4508
290	4510
290	4512
290	4514
290	4516
290	4518
290	4520
290	4523
290	4525
290	4527
290	4529
289	4531
290	4533
290	4535
290	4537
290	4539
290	4541
290	4543
290	4545
290	4547
290	4549
290	4551
290	4553
291	4555
290	4557
291	4559
290	4561
290	4563
291	4566
291	4568
291	4570
291	4572
292	4574
292	4576
292	4578
292	4580
292	4582
292	4584
292	4586
292	4588
292	4590
293	4592
293	4594
293	4596
293	4598
293	4600
293	4602
294	4604
294	4606
294	4608
294	4610
294	4612
294	4614
294	4616
295	4618
294	4620
295	4622
296	4624
296	4626
296	4628
296	4630
296	4632
297	4634
297	4636
297	4638
298	4640
298	4642
298	4644
298	4646
298	4648
299	4651
299	4653
300	4655
300	4657
300	4659
301	4661
300	4663
301	4665
301	4667
301	4669
301	4671
302	4673
302	4675
303	4677
303	4679
303	4681
303	4683
303	4685
303	4687
304	4689
304	4691
305	4694
304	4696
304	4698
304	4700
304	4702
305	4704
305	4706
305	4708
305	4710
305	4712
304	4714
304	4716
304	4718
304	4720
304	4722
304	4724
304	4726
303	4728
303	4730
302	4732
302	4734
302	4736
301	4738
301	4740
301	4742
301	4744
301	4746
300	4748
299	4750
299	4752
299	4754
299	4756
298	4758
298	4760
298	4762
298	4764
297	4766
297	4768
297	4770
297	4772
297	4774
296	4776
296	4779
296	4781
296	4783
296	4785
295	4787
296	4789
295	4791
295	4793
295	4795
295	4797
295	4799
295	4801
295	4803
295	4805
295	4807
295	4809
295	4811
295	4813
294	4815
294	4817
294	4819
295	4822
295	4824
295	4826
295	4828
295	4830
295	4832
295	4834
294	4836
295	4838
295	4840
295	4842
295	4844
295	4846
294	4848
295	4850
295	4852
295	4854
295	4856
295	4858
295	4860
294	4862
294	4864
294	4866
294	4868
294	4870
294	4872
295	4874
295	4876
295	4878
295	4880
294	4882
294	4884
294	4886
294	4888
294	4890
294	4892
294	4894
294	4896
294	4898
294	4900
294	4902
294	4904
294	4907
294	4909
295	4911
295	4913
295	4915
295	4917
296	4919
296	4921
296	4923
297	4925
297	4927
298	4929
298	4931
298	4933
299	4935
299	4937
300	4939
300	4941
300	4943
300	4945
300	4947
300	4950
301	4952
301	4954
301	4956
302	4958
302	4960
302	4962
302	4964
302	4966
302	4968
302	4970
303	4972
303	4974
303	4976
302	4978
302	4980
301	4982
301	4984
301	4986
300	4988
300	4990
300	4992
299	4994
299	4996
299	4998
298	5000
297	5002
297	5004
297	5006
296	5008
296	5010
295	5012
295	5014
294	5016
293	5018
293	5020
293	5022
293	5024
293	5026
292	5028
292	5030
292	5032
292	5035
291	5037
291	5039
291	5041
291	5043
291	5045
290	5047
290	5049
290	5051
290	5053
289	5055
288	5057
288	5059
286	5061
286	5063
285	5065
285	5067
286	5069
288	5071
289	5073
292	5075
294	5078
297	5080
300	5082
303	5084
306	5086
308	5088
309	5090
311	5092
310	5094
309	5096
307	5098
305	5100
302	5102
300	5104
297	5106
296	5108
294	5110
293	5112
292	5114
291	5116
291	5118
290	5120
290	5122
290	5124
290	5126
290	5128
289	5130
289	5132
289	5134
289	5136
289	5138
289	5140
289	5142
290	5144
289	5146
289	5148
289	5150
289	5152
289	5154
289	5156
289	5158
290	5160
290	5163
290	5165
290	5167
290	5169
290	5171
290	5173
291	5175
291	5177
291	5179
291	5181
291	5183
291	5185
292	5187
292	5189
292	5191
292	5193
292	5195
292	5197
293	5199
292	5201
293	5203
293	5206
293	5208
293	5210
294	5212
293	5214
294	5216
294	5218
294	5220
294	5222
294	5224
295	5226
295	5228
295	5230
295	5232
295	5234
296	5236
296	5238
296	5240
296	5242
297	5244
297	5246
297	5248
297	5250
297	5252
297	5254
298	5256
298	5258
298	5260
299	5262
299	5264
299	5266
299	5268
299	5270
300	5272
300	5274
300	5276
300	5278
300	5280
300	5282
301	5284
301	5286
301	5288
302	5291
302	5293
302	5295
302	5297
302	5299
302	5301
302	5303
303	5305
303	5307
303	5309
304	5311
304	5313
304	5315
304	5317
304	5319
304	5321
304	5323
305	5325
305	5327
305	5329
305	5331
305	5334
304	5336
305	5338
305	5340
304	5342
305	5344
304	5346
304	5348
304	5350
303	5352
303	5354
303	5356
302	5358
302	5360
302	5362
301	5364
301	5366
300	5368
300	5370
300	5372
300	5374
300	5376
299	5378
299	5380
298	5382
298	5384
298	5386
298	5388
297	5390
297	5392
297	5394
297	5396
296	5398
296	5400
296	5402
296	5404
296	5406
296	5408
296	5410
296	5412
295	5414
295	5416
295	5419
295	5421
295	5423
295	5425
295	5427
295	5429
295	5431
295	5433
295	5435
295	5437
295	5439
295	5441
295	5443
295	5445
295	5447
294	5449
294	5451
294	5453
294	5455
295	5457
295	5459
294	5462
294	5464
294	5466
294	5468
294	5470
294	5472
294	5474
294	5476
294	5478
294	5480
293	5482
293	5484
293	5486
293	5488
294	5490
294	5492
293	5494
293	5496
293	5498
293	5500
293	5502
293	5504
293	5506
293	5508
293	5510
293	5512
293	5514
293	5516
293	5518
294	5520
294	5522
294	5524
295	5526
295	5528
296	5530
296	5532
297	5534
297	5536
297	5538
298	5540
299	5542
299	5544
299	5547
300	5549
300	5551
300	5553
301	5555
301	5557
302	5559
302	5561
302	5563
302	5565
302	5567
303	5569
303	5571
303	5573
304	5575
303	5577
303	5579
303	5581
303	5583
303	5585
303	5587
303	5590
303	5592
302	5594
302	5596
302	5598
301	5600
301	5602
300	5604
300	5606
299	5608
299	5610
298	5612
298	5614
297	5616
297	5618
296	5620
296	5622
295	5624
295	5626
295	5628
294	5630
294	5632
293	5634
293	5636
293	5638
293	5640
292	5642
292	5644
291	5646
291	5648
291	5650
290	5652
290	5654
290	5656
290	5658
290	5660
290	5662
289	5664
288	5666
287	5668
287	5670
286	5672
285	5675
285	5677
285	5679
286	5681
287	5683
288	5685
291	5687
294	5689
298	5691
301	5693
304	5695
307	5697
310	5699
311	5701
311	5703
311	5705
309	5707
307	5709
304	5711
301	5713
299	5715
296	5718
295	5720
294	5722
293	5724
293	5726
292	5728
291	5730
291	5732
291	5734
290	5736
291	5738
290	5740
291	5742
290	5744
290	5746
290	5748
290	5750
290	5752
290	5754
290	5756
290	5758
290	5760
291	5762
290	5764
290	5766
291	5768
290	5770
291	5772
291	5774
291	5776
292	5778
291	5780
291	5782
292	5784
291	5786
292	5788
292	5790
292	5792
293	5794
292	5796
292	5798
293	5800
293	5803
293	5805
293	5807
294	5809
294	5811
294	5813
294	5815
294	5817
294	5819
294	5821
295	5823
295	5825
295	5827
295	5829
295	5831
295	5833
295	5835
296	5837
296	5839
296	5841
296	5843
297	5846
297	5848
297	5850
297	5852
297	5854
298	5856
298	5858
298	5860
298	5862
298	5864
299	5866
299	5868
299	5870
299	5872
300	5874
300	5876
300	5878
300	5880
301	5882
300	5884
301	5886
301	5888
301	5890
302	5892
302	5894
302	5896
302	5898
302	5900
302	5902
303	5904
303	5906
303	5908
303	5910
303	5912
303	5914
303	5916
303	5918
304	5920
304	5922
304	5924
304	5926
304	5928
304	5931
304	5933
304	5935
304	5937
304	5939
304	5941
305	5943
305	5945
304	5947
304	5949
304	5951
303	5953
304	5955
304	5957
303	5959
303	5961
303	5963
302	5965
302	5967
302	5969
301	5971
301	5974
301	5976
301	5978
301	5980
300	5982
300	5984
299	5986
300	5988
299	5990
299	5992
299	5994
298	5996
298	5998
298	6000
297	6002
298	6004
298	6006
297	6008
297	6010
297	6012
297	6014
296	6016
297	6018
297	6020
297	6022
297	6024
297	6026
297	6028
297	6030
296	6032
296	6034
296	6036
296	6038
296	6040
296	6042
296	6044
296	6046
296	6048
296	6050
296	6052
296	6054
296	6056
296	6059
296	6061
296	6063
296	6065
296	6067
296	6069
295	6071
296	6073
296	6075
295	6077
295	6079
295	6081
295	6083
295	6085
295	6087
295	6089
295	6091
295	6093
295	6095
295	6097
295	6099
294	6102
295	6104
295	6106
295	6108
295	6110
295	6112
295	6114
294	6116
294	6118
294	6120
294	6122
295	6124
295	6126
295	6128
295	6130
296	6132
296	6134
297	6136
297	6138
298	6140
298	6142
299	6144
299	6146
300	6148
299	6150
300	6152
301	6154
301	6156
302	6158
303	6160
303	6162
303	6164
304	6166
304	6168
305	6170
305	6172
305	6174
305	6176
305	6178
305	6180
306	6182
306	6184
306	6187
305	6189
306	6191
306	6193
306	6195
306	6197
305	6199
304	6201
304	6203
304	6205
303	6207
303	6209
302	6211
302	6213
301	6215
300	6217
300	6219
299	6221
299	6223
299	6225
298	6227
298	6230
297	6232
296	6234
296	6236
296	6238
296	6240
295	6242
295	6244
294	6246
294	6248
294	6250
293	6252
293	6254
293	6256
293	6258
293	6260
292	6262
292	6264
292	6266
292	6268
292	6270
292	6272
291	6274
291	6276
290	6278
289	6280
288	6282
287	6284
286	6286
286	6288
286	6290
287	6292
288	6294
290	6296
293	6298
296	6300
299	6302
302	6304
306	6306
310	6308
313	6310
314	6312
315	6315
314	6317
312	6319
311	6321
308	6323
305	6325
303	6327
300	6329
298	6331
297	6333
296	6335
296	6337
296	6339
295	6341
295	6343
294	6345
294	6347
293	6349
293	6351
293	6353
293	6355
293	6358
292	6360
292	6362
291	6364
291	6366
291	6368
291	6370
291	6372
290	6374
291	6376
290	6378
290	6380
290	6382
290	6384
290	6386
290	6388
290	6390
290	6392
290	6394
290	6396
290	6398
290	6400
290	6402
290	6404
290	6406
290	6408
290	6410
290	6412
290	6414
290	6416
290	6418
290	6420
290	6422
290	6424
290	6426
291	6428
290	6430
290	6432
290	6434
290	6436
291	6438
291	6440
291	6443
291	6445
291	6447
291	6449
291	6451
291	6453
291	6455
292	6457
292	6459
292	6461
292	6463
292	6465
292	6467
292	6469
292	6471
293	6473
293	6475
293	6477
293	6479
293	6481
293	6483
293	6486
294	6488
294	6490
294	6492
295	6494
295	6496
295	6498
296	6500
295	6502
296	6504
297	6506
297	6508
297	6510
297	6512
297	6514
298	6516
298	6518
298	6520
299	6522
299	6524
299	6526
299	6528
300	6530
300	6532
300	6534
300	6536
301	6538
301	6540
302	6542
302	6544
302	6546
302	6548
302	6550
302	6552
302	6554
303	6556
303	6558
302	6560
302	6562
302	6564
302	6566
302	6568
302	6571
301	6573
301	6575
301	6577
300	6579
300	6581
300	6583
300	6585
299	6587
299	6589
299	6591
299	6593
299	6595
299	6597
298	6599
298	6601
297	6603
297	6605
297	6607
297	6609
297	6611
297	6614
296	6616
296	6618
296	6620
296	6622
296	6624
296	6626
296	6628
296	6630
296	6632
295	6634
295	6636
295	6638
296	6640
295	6642
295	6644
295	6646
295	6648
295	6650
295	6652
294	6654
294	6656
294	6658
295	6660
294	6662
294	6664
294	6666
293	6668
294	6670
294	6672
293	6674
294	6676
293	6678
293	6680
293	6682
293	6684
294	6686
294	6688
294	6690
294	6692
294	6694
294	6696
294	6699
293	6701
293	6703
294	6705
294	6707
294	6709
294	6711
294	6713
294	6715
293	6717
293	6719
293	6721
293	6723
294	6725
294	6727
293	6729
293	6731
293	6733
293	6735
293	6737
293	6739
293	6742
293	6744
293	6746
293	6748
293	6750
293	6752
293	6754
293	6756
294	6758
294	6760
295	6762
295	6764
295	6766
296	6768
296	6770
297	6772
297	6774
298	6776
298	6778
298	6780
299	6782
299	6784
299	6786
300	6788
300	6790
301	6792
301	6794
301	6796
301	6798
302	6800
302	6802
303	6804
303	6806
303	6808
303	6810
303	6812
303	6814
303	6816
303	6818
303	6820
303	6822
303	6824
303	6827
302	6829
302	6831
301	6833
301	6835
300	6837
299	6839
299	6841
299	6843
298	6845
298	6847
297	6849
296	6851
296	6853
296	6855
295	6857
295	6859
294	6861
294	6863
293	6865
293	6867
292	6870
292	6872
292	6874
292	6876
291	6878
291	6880
290	6882
290	6884
290	6886
290	6888
289	6890
290	6892
289	6894
289	6896
289	6898
288	6900
289	6902
288	6904
288	6906
288	6908
287	6910
286	6912
285	6914
284	6916
283	6918
283	6920
283	6922
284	6924
285	6926
287	6928
289	6930
293	6932
296	6934
299	6936
303	6938
307	6940
310	6942
312	6944
312	6946
312	6948
310	6950
308	6952
305	6955
303	6957
300	6959
298	6961
296	6963
295	6965
295	6967
294	6969
293	6971
293	6973
293	6975
293	6977
292	6979
292	6981
291	6983
291	6985
290	6987
291	6989
290	6991
290	6993
290	6995
289	6998
289	7000
289	7002
289	7004
289	7006
289	7008
289	7010
289	7012
289	7014
289	7016
288	7018
289	7020
289	7022
289	7024
289	7026
289	7028
289	7030
289	7032
289	7034
289	7036
289	7038
289	7040
289	7042
290	7044
290	7046
290	7048
290	7050
290	7052
290	7054
290	7056
291	7058
291	7060
291	7062
291	7064
291	7066
292	7068
292	7070
292	7072
293	7074
293	7076
293	7078
294	7080
294	7083
294	7085
294	7087
294	7089
295	7091
295	7093
295	7095
296	7097
295	7099
296	7101
296	7103
296	7105
297	7107
297	7109
297	7111
297	7113
297	7115
298	7117
298	7119
298	7121
298	7123
298	7126
299	7128
299	7130
299	7132
299	7134
299	7136
299	7138
300	7140
300	7142
300	7144
300	7146
300	7148
301	7150
301	7152
301	7154
302	7156
302	7158
302	7160
302	7162
302	7164
302	7166
302	7168
302	7170
303	7172
303	7174
304	7176
304	7178
304	7180
304	7182
304	7184
304	7186
304	7188
305	7190
305	7192
304	7194
305	7196
304	7198
304	7200
304	7202
303	7204
304	7206
304	7208
303	7211
303	7213
303	7215
302	7217
302	7219
302	7221
302	7223
302	7225
301	7227
301	7229
301	7231
300	7233
300	7235
300	7237
300	7239
300	7241
299	7243
300	7245
299	7247
299	7249
299	7251
298	7254
298	7256
298	7258
298	7260
298	7262
298	7264
298	7266
297	7268
297	7270
297	7272
297	7274
297	7276
297	7278
297	7280
296	7282
296	7284
296	7286
296	7288
296	7290
296	7292
296	7294
296	7296
296	7298
295	7300
296	7302
296	7304
295	7306
296	7308
296	7310
296	7312
295	7314
295	7316
295	7318
295	7320
295	7322
295	7324
296	7326
295	7328
295	7330
295	7332
294	7334
295	7336
295	7339
295	7341
295	7343
294	7345
294	7347
294	7349
294	7351
294	7353
294	7355
294	7357
294	7359
294	7361
294	7363
293	7365
293	7367
293	7369
293	7371
293	7373
293	7375
293	7377
293	7379
293	7382
292	7384
292	7386
292	7388
292	7390
293	7392
292	7394
292	7396
293	7398
292	7400
292	7402
292	7404
293	7406
293	7408
293	7410
294	7412
295	7414
295	7416
296	7418
296	7420
296	7422
297	7424
297	7426
298	7428
298	7430
299	7432
299	7434
299	7436
300	7438
300	7440
301	7442
301	7444
302	7446
302	7448
302	7450
303	7452
303	7454
304	7456
304	7458
304	7460
304	7462
304	7464
304	7467
304	7469
304	7471
304	7473
304	7475
304	7477
304	7479
303	7481
302	7483
302	7485
301	7487
301	7489
301	7491
300	7493
300	7495
299	7497
298	7499
297	7501
297	7503
297	7505
296	7507
296	7510
296	7512
295	7514
294	7516
294	7518
294	7520
293	7522
293	7524
293	7526
292	7528
292	7530
291	7532
291	7534
291	7536
291	7538
291	7540
291	7542
290	7544
290	7546
290	7548
290	7550
289	7552
289	7554
289	7556
288	7558
287	7560
286	7562
284	7564
284	7566
283	7568
283	7570
284	7572
285	7574
287	7576
290	7578
293	7580
296	7582
300	7584
304	7586
307	7588
311	7590
312	7592
313	7595
312	7597
310	7599
308	7601
305	7603
303	7605
301	7607
299	7609
298	7611
296	7613
296	7615
295	7617
294	7619
294	7621
294	7623
293	7625
293	7627
293	7629
292	7631
292	7633
291	7635
291	7638
291	7640
291	7642
291	7644
291	7646
290	7648
290	7650
290	7652
290	7654
290	7656
290	7658
290	7660
290	7662
290	7664
290	7666
290	7668
290	7670
290	7672
290	7674
290	7676
290	7678
290	7680
290	7682
290	7684
291	7686
291	7688
291	7690
291	7692
291	7694
292	7696
291	7698
291	7700
292	7702
292	7704
292	7706
292	7708
292	7710
293	7712
293	7714
293	7716
293	7718
293	7720
293	7723
293	7725
294	7727
294	7729
293	7731
293	7733
294	7735
294	7737
294	7739
294	7741
294	7743
294	7745
294	7747
294	7749
295	7751
294	7753
295	7755
295	7757
295	7759
295	7761
295	7763
295	7766
296	7768
296	7770
296	7772
296	7774
296	7776
297	7778
297	7780
297	7782
297	7784
297	7786
297	7788
298	7790
298	7792
298	7794
298	7796
298	7798
299	7800
298	7802
299	7804
299	7806
299	7808
300	7810
300	7812
300	7814
300	7816
300	7818
301	7820
301	7822
301	7824
302	7826
302	7828
302	7830
302	7832
301	7834
302	7836
302	7838
302	7840
302	7842
302	7844
302	7846
302	7848
301	7851
301	7853
301	7855
300	7857
300	7859
300	7861
300	7863
299	7865
299	7867
299	7869
299	7871
299	7873
299	7875
299	7877
298	7879
298	7881
298	7883
298	7885
298	7887
298	7889
298	7891
297	7894
297	7896
297	7898
297	7900
297	7902
297	7904
297	7906
297	7908
297	7910
297	7912
297	7914
297	7916
297	7918
297	7920
297	7922
297	7924
297	7926
297	7928
297	7930
296	7932
296	7934
296	7936
296	7938
296	7940
296	7942
297	7944
296	7946
296	7948
296	7950
296	7952
296	7954
295	7956
296	7958
296	7960
296	7962
295	7964
295	7966
294	7968
295	7970
295	7972
295	7974
295	7976
294	7979
294	7981
294	7983
294	7985
294	7987
294	7989
294	7991
294	7993
294	7995
294	7997
294	7999
294	8001
294	8003
294	8005
294	8007
294	8009
294	8011
294	8013
294	8015
293	8017
293	8019
293	8022
293	8024
294	8026
294	8028
294	8030
295	8032
295	8034
295	8036
296	8038
296	8040
297	8042
297	8044
298	8046
298	8048
298	8050
298	8052
299	8054
300	8056
300	8058
301	8060
301	8062
301	8064
302	8066
302	8068
302	8070
303	8072
303	8074
304	8076
304	8078
304	8080
304	8082
304	8084
304	8086
305	8088
305	8090
305	8092
304	8094
304	8096
304	8098
303	8100
302	8102
302	8104
302	8107
301	8109
301	8111
300	8113
300	8115
299	8117
298	8119
298	8121
297	8123
297	8125
296	8127
296	8129
295	8131
294	8133
294	8135
293	8137
293	8139
292	8141
292	8143
292	8145
291	8147
291	8150
290	8152
290	8154
290	8156
290	8158
290	8160
289	8162
289	8164
289	8166
288	8168
288	8170
288	8172
287	8174
287	8176
287	8178
285	8180
284	8182
283	8184
282	8186
281	8188
281	8190
281	8192
282	8194
284	8196
286	8198
288	8200
291	8202
294	8204
298	8206
302	8208
305	8210
308	8212
310	8214
310	8216
310	8218
308	8220
306	8222
303	8224
300	8226
298	8228
295	8230
293	8232
292	8235
291	8237
290	8239
290	8241
290	8243
289	8245
289	8247
288	8249
288	8251
288	8253
288	8255
288	8257
288	8259
288	8261
287	8263
287	8265
287	8267
287	8269
287	8271
287	8273
287	8275
288	8278
288	8280
287	8282
288	8284
287	8286
288	8288
288	8290
288	8292
289	8294
288	8296
289	8298
289	8300
289	8302
289	8304
289	8306
290	8308
290	8310
290	8312
290	8314
290	8316
290	8318
291	8320
291	8322
291	8324
291	8326
292	8328
292	8330
292	8332
292	8334
292	8336
292	8338
293	8340
293	8342
294	8344
294	8346
294	8348
294	8350
294	8352
294	8354
295	8356
295	8358
295	8360
295	8363
295	8365
295	8367
296	8369
296	8371
296	8373
297	8375
297	8377
297	8379
297	8381
297	8383
298	8385
298	8387
297	8389
298	8391
299	8393
299	8395
299	8397
299	8399
299	8401
299	8403
300	8406
300	8408
300	8410
300	8412
300	8414
300	8416
301	8418
301	8420
301	8422
301	8424
301	8426
302	8428
302	8430
302	8432
302	8434
302	8436
302	8438
302	8440
302	8442
303	8444
303	8446
303	8448
303	8450
303	8452
303	8454
303	8456
303	8458
303	8460
302	8462
302	8464
302	8466
301	8468
301	8470
301	8472
301	8474
301	8476
300	8478
301	8480
300	8482
299	8484
299	8486
299	8488
299	8491
299	8493
298	8495
298	8497
298	8499
297	8501
297	8503
297	8505
297	8507
298	8509
297	8511
297	8513
297	8515
297	8517
297	8519
297	8521
297	8523
297	8525
297	8527
297	8529
297	8531
296	8534
297	8536
296	8538
296	8540
297	8542
297	8544
297	8546
297	8548
296	8550
296	8552
296	8554
296	8556
296	8558
297	8560
297	8562
296	8564
296	8566
296	8568
296	8570
296	8572
296	8574
296	8576
296	8578
296	8580
296	8582
296	8584
296	8586
296	8588
296	8590
296	8592
297	8594
296	8596
296	8598
297	8600
296	8602
296	8604
296	8606
296	8608
297	8610
297	8612
297	8614
297	8616
297	8619
298	8621
299	8623
299	8625
300	8627
300	8629
301	8631
301	8633
301	8635
301	8637
302	8639
302	8641
303	8643
303	8645
304	8647
304	8649
304	8651
305	8653
305	8655
306	8657
306	8659
307	8662
307	8664
307	8666
307	8668
307	8670
307	8672
307	8674
308	8676
308	8678
307	8680
307	8682
307	8684
306	8686
306	8688
305	8690
305	8692
304	8694
304	8696
303	8698
302	8700
302	8702
301	8704
301	8706
300	8708
300	8710
299	8712
299	8714
298	8716
298	8718
296	8720
296	8722
296	8724
295	8726
295	8728
294	8730
294	8732
293	8734
292	8736
292	8738
292	8740
292	8742
291	8744
291	8747
290	8749
290	8751
290	8753
290	8755
290	8757
290	8759
290	8761
289	8763
288	8765
288	8767
286	8769
285	8771
285	8773
284	8775
284	8777
284	8779
285	8781
286	8783
288	8785
291	8787
294	8790
298	8792
301	8794
304	8796
307	8798
310	8800
311	8802
312	8804
311	8806
310	8808
308	8810
304	8812
301	8814
299	8816
296	8818
295	8820
293	8822
292	8824
292	8826
291	8828
290	8830
290	8832
290	8834
290	8836
289	8838
289	8840
290	8842
289	8844
289	8846
289	8848
288	8850
289	8852
288	8854
288	8856
288	8858
288	8860
289	8862
288	8864
288	8866
288	8868
288	8870
289	8872
289	8875
289	8877
289	8879
289	8881
289	8883
289	8885
289	8887
289	8889
289	8891
289	8893
290	8895
290	8897
289	8899
290	8901
290	8903
290	8905
291	8907
291	8909
291	8911
291	8913
291	8915
291	8918
291	8920
292	8922
292	8924
292	8926
293	8928
293	8930
293	8932
293	8934
293	8936
293	8938
293	8940
294	8942
294	8944
294	8946
294	8948
295	8950
294	8952
295	8954
295	8956
295	8958
296	8960
295	8962
296	8964
296	8966
296	8968
296	8970
296	8972
297	8974
297	8976
297	8978
298	8980
297	8982
298	8984
298	8986
298	8988
299	8990
299	8992
299	8994
300	8996
300	8998
300	9000
300	9003
300	9005
301	9007
301	9009
302	9011
302	9013
302	9015
302	9017
302	9019
302	9021
303	9023
303	9025
303	9027
304	9029
304	9031
304	9033
305	9035
304	9037
305	9039
305	9041
305	9043
305	9046
305	9048
304	9050
305	9052
304	9054
304	9056
304	9058
304	9060
303	9062
303	9064
303	9066
302	9068
302	9070
302	9072
301	9074
301	9076
301	9078
301	9080
300	9082
300	9084
300	9086
300	9088
300	9090
299	9092
299	9094
299	9096
299	9098
298	9100
298	9102
298	9104
298	9106
298	9108
298	9110
298	9112
298	9114
297	9116
297	9118
297	9120
297	9122
297	9124
297	9126
297	9128
297	9131
297	9133
296	9135
296	9137
296	9139
296	9141
296	9143
296	9145
296	9147
296	9149
296	9151
296	9153
295	9155
295	9157
296	9159
296	9161
296	9163
296	9165
295	9167
295	9169
295	9171
295	9174
296	9176
295	9178
295	9180
296	9182
295	9184
296	9186
296	9188
297	9190
298	9192
298	9194
299	9196
299	9198
299	9200
299	9202
300	9204
300	9206
301	9208
301	9210
302	9212
302	9214
302	9216
303	9218
303	9220
303	9222
304	9224
305	9226
305	9228
306	9230
306	9232
306	9234
306	9236
306	9238
306	9240
306	9242
307	9244
307	9246
307	9248
306	9250
306	9252
305	9254
305	9256
304	9259
304	9261
303	9263
303	9265
302	9267
301	9269
301	9271
300	9273
300	9275
299	9277
299	9279
298	9281
297	9283
296	9285
296	9287
296	9289
295	9291
295	9293
294	9295
294	9297
293	9299
292	9302
292	9304
292	9306
292	9308
292	9310
291	9312
291	9314
291	9316
290	9318
290	9320
289	9322
289	9324
290	9326
289	9328
289	9330
289	9332
288	9334
287	9336
286	9338
285	9340
285	9342
285	9344
284	9346
284	9348
284	9350
284	9352
286	9354
288	9356
291	9358
294	9360
297	9362
300	9364
303	9366
306	9368
308	9370
309	9372
309	9374
309	9376
307	9378
305	9380
302	9382
299	9384
296	9387
294	9389
293	9391
291	9393
290	9395
289	9397
289	9399
288	9401
288	9403
288	9405
287	9407
287	9409
287	9411
287	9413
287	9415
287	9417
286	9419
286	9421
286	9423
286	9425
287	9427
286	9430
286	9432
287	9434
286	9436
286	9438
286	9440
286	9442
287	9444
287	9446
287	9448
287	9450
287	9452
287	9454
287	9456
287	9458
288	9460
288	9462
288	9464
288	9466
288	9468
288	9470
288	9472
288	9474
288	9476
289	9478
289	9480
289	9482
289	9484
289	9486
290	9488
290	9490
290	9492
291	9494
291	9496
291	9498
291	9500
291	9502
291	9504
292	9506
292	9508
293	9510
293	9512
293	9515
293	9517
293	9519
294	9521
293	9523
294	9525
294	9527
295	9529
295	9531
294	9533
295	9535
295	9537
295	9539
296	9541
296	9543
296	9545
297	9547
296	9549
297	9551
297	9553
297	9555
298	9558
298	9560
298	9562
299	9564
299	9566
298	9568
299	9570
299	9572
300	9574
300	9576
300	9578
300	9580
301	9582
301	9584
301	9586
301	9588
302	9590
302	9592
303	9594
303	9596
303	9598
303	9600
303	9602
303	9604
303	9606
304	9608
304	9610
304	9612
304	9614
304	9616
304	9618
304	9620
303	9622
303	9624
304	9626
303	9628
303	9630
303	9632
302	9634
303	9636
302	9638
302	9640
302	9643
302	9645
301	9647
301	9649
301	9651
301	9653
300	9655
300	9657
300	9659
300	9661
300	9663
300	9665
299	9667
299	9669
299	9671
299	9673
299	9675
299	9677
299	9679
299	9681
299	9683
299	9686
299	9688
298	9690
299	9692
299	9694
299	9696
298	9698
298	9700
298	9702
298	9704
298	9706
299	9708
298	9710
299	9712
299	9714
298	9716
299	9718
298	9720
298	9722
299	9724
299	9726
299	9728
299	9730
299	9732
299	9734
299	9736
299	9738
299	9740
299	9742
300	9744
300	9746
301	9748
301	9750
301	9752
302	9754
302	9756
303	9758
304	9760
304	9762
304	9764
305	9766
305	9768
306	9771
306	9773
306	9775
307	9777
307	9779
308	9781
308	9783
308	9785
308	9787
309	9789
309	9791
309	9793
309	9795
309	9797
309	9799
309	9801
309	9803
309	9805
309	9807
309	9809
308	9811
308	9814
307	9816
306	9818
306	9820
305	9822
305	9824
304	9826
303	9828
303	9830
302	9832
301	9834
301	9836
300	9838
299	9840
299	9842
298	9844
298	9846
297	9848
296	9850
295	9852
295	9854
295	9856
294	9858
294	9860
293	9862
293	9864
292	9866
291	9868
291	9870
290	9872
290	9874
290	9876
290	9878
289	9880
289	9882
288	9884
288	9886
287	9888
287	9890
286	9892
286	9894
284	9896
283	9899
282	9901
281	9903
280	9905
280	9907
281	9909
282	9911
284	9913
286	9915
288	9917
291	9919
294	9921
297	9923
300	9925
303	9927
304	9929
305	9931
304	9933
302	9935
300	9937
298	9939
295	9942
293	9944
291	9946
289	9948
288	9950
287	9952
287	9954
286	9956
286	9958
286	9960
285	9962
285	9964
285	9966
285	9968
285	9970
285	9972
285	9974
285	9976
285	9978
285	9980
285	9982
285	9984
285	9986
285	9988
285	9990
286	9992
286	9994
286	9996
286	9998
286	10000
286	10002
286	10004
286	10006
287	10008
287	10010
287	10012
287	10014
287	10016
287	10018
287	10020
288	10022
288	10024
288	10027
289	10029
289	10031
289	10033
289	10035
289	10037
289	10039
290	10041
290	10043
290	10045
291	10047
291	10049
291	10051
291	10053
291	10055
292	10057
292	10059
292	10061
293	10063
293	10065
293	10067
293	10070
293	10072
293	10074
294	10076
294	10078
294	10080
294	10082
295	10084
295	10086
295	10088
295	10090
296	10092
296	10094
296	10096
296	10098
297	10100
296	10102
297	10104
297	10106
297	10108
298	10110
298	10112
298	10114
298	10116
298	10118
298	10120
298	10122
299	10124
299	10126
300	10128
300	10130
300	10132
300	10134
300	10136
300	10138
301	10140
301	10142
301	10144
302	10146
301	10148
301	10150
302	10152
302	10155
302	10157
303	10159
303	10161
303	10163
303	10165
303	10167
303	10169
303	10171
303	10173
303	10175
303	10177
304	10179
303	10181
303	10183
303	10185
302	10187
302	10189
302	10191
302	10193
302	10195
301	10198
301	10200
301	10202
300	10204
300	10206
300	10208
299	10210
300	10212
299	10214
299	10216
298	10218
298	10220
298	10222
298	10224
298	10226
298	10228
298	10230
298	10232
297	10234
297	10236
297	10238
297	10240
297	10242
297	10244
297	10246
297	10248
297	10250
297	10252
297	10254
297	10256
297	10258
297	10260
297	10262
297	10264
297	10266
297	10268
297	10270
297	10272
297	10274
297	10276
297	10278
297	10280
296	10283
296	10285
296	10287
296	10289
296	10291
297	10293
296	10295
297	10297
296	10299
296	10301
296	10303
296	10305
296	10307
297	10309
297	10311
298	10313
299	10315
299	10317
299	10319
300	10321
300	10323
301	10326
301	10328
302	10330
302	10332
303	10334
303	10336
303	10338
304	10340
305	10342
305	10344
306	10346
306	10348
306	10350
307	10352
307	10354
307	10356
307	10358
307	10360
308	10362
307	10364
307	10366
307	10368
307	10370
307	10372
306	10374
306	10376
306	10378
306	10380
305	10382
304	10384
303	10386
303	10388
303	10390
302	10392
302	10394
301	10396
300	10398
299	10400
299	10402
298	10404
297	10406
297	10408
297	10411
296	10413
295	10415
295	10417
294	10419
293	10421
293	10423
292	10425
292	10427
292	10429
292	10431
291	10433
290	10435
290	10437
290	10439
289	10441
289	10443
289	10445
289	10447
288	10449
288	10451
287	10454
287	10456
287	10458
286	10460
285	10462
284	10464
283	10466
281	10468
281	10470
281	10472
281	10474
283	10476
284	10478
287	10480
290	10482
293	10484
297	10486
300	10488
303	10490
307	10492
308	10494
309	10496
308	10498
307	10500
305	10502
302	10504
300	10506
297	10508
295	10510
294	10512
293	10514
292	10516
291	10518
290	10520
290	10522
290	10524
290	10526
290	10528
289	10530
289	10532
289	10534
288	10536
288	10539
288	10541
288	10543
288	10545
288	10547
288	10549
288	10551
288	10553
288	10555
288	10557
288	10559
288	10561
288	10563
288	10565
288	10567
288	10569
288	10571
288	10573
289	10575
289	10577
289	10579
289	10582
289	10584
289	10586
289	10588
289	10590
290	10592
290	10594
290	10596
290	10598
290	10600
290	10602
291	10604
291	10606
291	10608
292	10610
292	10612
292	10614
292	10616
292	10618
293	10620
293	10622
293	10624
294	10626
294	10628
294	10630
295	10632
294	10634
295	10636
295	10638
295	10640
296	10642
296	10644
296	10646
297	10648
296	10650
296	10652
297	10654
297	10656
298	10658
298	10660
298	10662
298	10664
298	10667
299	10669
299	10671
299	10673
299	10675
300	10677
300	10679
300	10681
300	10683
300	10685
300	10687
301	10689
301	10691
301	10693
301	10695
301	10697
301	10699
301	10701
301	10703
301	10705
302	10707
302	10710
302	10712
302	10714
302	10716
303	10718
303	10720
303	10722
303	10724
303	10726
304	10728
304	10730
303	10732
303	10734
303	10736
302	10738
302	10740
302	10742
303	10744
302	10746
302	10748
302	10750
301	10752
301	10754
301	10756
301	10758
300	10760
300	10762
300	10764
299	10766
299	10768
299	10770
298	10772
298	10774
298	10776
298	10778
297	10780
297	10782
297	10784
297	10786
296	10788
296	10790
297	10792
296	10795
296	10797
296	10799
296	10801
296	10803
296	10805
296	10807
296	10809
296	10811
296	10813
296	10815
296	10817
296	10819
296	10821
296	10823
296	10825
296	10827
297	10829
297	10831
297	10833
297	10835
297	10838
297	10840
297	10842
297	10844
297	10846
297	10848
297	10850
297	10852
297	10854
297	10856
297	10858
297	10860
298	10862
298	10864
297	10866
297	10868
297	10870
297	10872
298	10874
298	10876
298	10878
297	10880
297	10882
297	10884
297	10886
297	10888
297	10890
297	10892
297	10894
297	10896
297	10898
297	10900
296	10902
297	10904
297	10906
297	10908
298	10910
298	10912
299	10914
299	10916
299	10918
300	10920
300	10923
301	10925
302	10927
302	10929
303	10931
303	10933
303	10935
304	10937
304	10939
304	10941
305	10943
306	10945
306	10947
306	10949
306	10951
307	10953
307	10955
307	10957
307	10959
307	10961
307	10963
307	10966
307	10968
307	10970
307	10972
307	10974
307	10976
306	10978
306	10980
305	10982
304	10984
304	10986
303	10988
303	10990
302	10992
302	10994
301	10996
300	10998
299	11000
299	11002
298	11004
297	11006
297	11008
296	11010
296	11012
295	11014
295	11016
294	11018
293	11020
293	11022
292	11024
292	11026
292	11028
292	11030
291	11032
291	11034
290	11036
290	11038
290	11040
289	11042
290	11044
289	11046
289	11048
289	11051
288	11053
288	11055
288	11057
287	11059
287	11061
286	11063
285	11065
284	11067
283	11069
282	11071
282	11073
281	11075
282	11077
284	11079
286	11081
288	11083
291	11085
294	11087
298	11089
302	11091
306	11094
309	11096
311	11098
312	11100
312	11102
311	11104
309	11106
306	11108
304	11110
302	11112
299	11114
298	11116
296	11118
296	11120
295	11122
295	11124
295	11126
294	11128
294	11130
294	11132
293	11134
293	11136
293	11138
292	11140
292	11142
292	11144
292	11146
292	11148
292	11150
291	11152
291	11154
291	11156
291	11158
291	11160
291	11162
291	11164
291	11166
291	11168
290	11170
290	11172
290	11174
291	11176
291	11179
291	11181
291	11183
291	11185
290	11187
290	11189
291	11191
291	11193
291	11195
291	11197
291	11199
291	11201
291	11203
291	11205
291	11207
292	11209
292	11211
292	11213
292	11215
292	11217
292	11219
292	11222
292	11224
292	11226
293	11228
293	11230
293	11232
293	11234
293	11236
293	11238
293	11240
294	11242
294	11244
294	11246
294	11248
294	11250
294	11252
295	11254
295	11256
295	11258
296	11260
296	11262
296	11264
296	11266
296	11268
296	11270
296	11272
296	11274
297	11276
297	11278
297	11280
297	11282
297	11284
297	11286
297	11288
298	11290
298	11292
298	11294
299	11296
299	11298
298	11300
298	11302
299	11304
299	11307
299	11309
300	11311
300	11313
300	11315
300	11317
300	11319
300	11321
301	11323
301	11325
301	11327
302	11329
302	11331
302	11333
302	11335
302	11337
302	11339
302	11341
302	11343
302	11345
302	11347
302	11350
302	11352
302	11354
301	11356
301	11358
301	11360
301	11362
301	11364
301	11366
300	11368
300	11370
300	11372
300	11374
300	11376
300	11378
299	11380
299	11382
299	11384
298	11386
298	11388
298	11390
298	11392
298	11394
298	11396
298	11398
298	11400
297	11402
297	11404
297	11406
297	11408
297	11410
297	11412
297	11414
297	11416
297	11418
297	11420
297	11422
297	11424
297	11426
297	11428
297	11430
296	11432
296	11435
296	11437
296	11439
296	11441
296	11443
296	11445
296	11447
296	11449
296	11451
296	11453
296	11455
296	11457
296	11459
296	11461
296	11463
296	11465
296	11467
295	11469
295	11471
295	11473
295	11475
295	11478
296	11480
295	11482
295	11484
295	11486
295	11488
295	11490
295	11492
295	11494
295	11496
295	11498
294	11500
294	11502
294	11504
294	11506
294	11508
295	11510
295	11512
295	11514
294	11516
294	11518
294	11520
294	11522
294	11524
295	11526
294	11528
294	11530
294	11532
294	11534
294	11536
294	11538
294	11540
294	11542
294	11544
294	11546
294	11548
294	11550
294	11552
294	11554
294	11556
294	11558
294	11560
294	11563
294	11565
294	11567
293	11569
294	11571
293	11573
294	11575
294	11577
294	11579
294	11581
294	11583
293	11585
293	11587
293	11589
293	11591
294	11593
294	11595
294	11597
293	11599
294	11601
293	11603
293	11606
293	11608
294	11610
294	11612
294	11614
294	11616
294	11618
293	11620
293	11622
293	11624
294	11626
294	11628
294	11630
294	11632
294	11634
294	11636
294	11638
293	11640
294	11642
294	11644
294	11646
294	11648
294	11650
294	11652
294	11654
294	11656
294	11658
294	11660
295	11662
295	11664
296	11666
296	11668
296	11670
296	11672
297	11674
297	11676
298	11678
298	11680
299	11682
299	11684
299	11686
300	11688
300	11691
300	11693
301	11695
301	11697
302	11699
302	11701
302	11703
303	11705
303	11707
303	11709
304	11711
304	11713
304	11715
304	11717
304	11719
304	11721
304	11723
304	11725
305	11727
304	11729
304	11731
304	11734
303	11736
303	11738
303	11740
302	11742
303	11744
302	11746
301	11748
301	11750
300	11752
300	11754
299	11756
299	11758
299	11760
298	11762
297	11764
297	11766
296	11768
296	11770
296	11772
295	11774
295	11776
294	11778
294	11780
294	11782
293	11784
293	11786
293	11788
293	11790
292	11792
292	11794
292	11796
292	11798
292	11800
291	11802
291	11804
291	11806
291	11808
290	11810
290	11812
289	11814
288	11816
287	11819
285	11821
285	11823
284	11825
284	11827
285	11829
287	11831
288	11833
291	11835
294	11837
297	11839
301	11841
304	11843
308	11845
311	11847
312	11849
313	11851
311	11853
310	11855
307	11857
305	11859
302	11862
300	11864
297	11866
296	11868
295	11870
294	11872
294	11874
293	11876
293	11878
293	11880
292	11882
292	11884
291	11886
291	11888
291	11890
291	11892
290	11894
290	11896
290	11898
290	11900
289	11902
289	11904
289	11906
288	11908
289	11910
288	11912
289	11914
288	11916
288	11918
288	11920
288	11922
288	11924
288	11926
288	11928
288	11930
288	11932
288	11934
288	11936
288	11938
288	11940
288	11942
288	11944
289	11947
289	11949
289	11951
289	11953
289	11955
289	11957
290	11959
290	11961
290	11963
290	11965
290	11967
290	11969
290	11971
291	11973
291	11975
291	11977
291	11979
291	11981
292	11983
292	11985
292	11987
292	11990
292	11992
292	11994
293	11996
293	11998
293	12000
293	12002
293	12004
293	12006
294	12008
294	12010
294	12012
294	12014
294	12016
294	12018
294	12020
294	12022
295	12024
295	12026
295	12028
295	12030
296	12032
296	12034
296	12036
295	12038
296	12040
296	12042
296	12044
297	12046
297	12048
297	12050
296	12052
297	12054
297	12056
297	12058
297	12060
297	12062
298	12064
298	12066
298	12068
298	12070
298	12072
299	12075
299	12077
300	12079
300	12081
300	12083
300	12085
300	12087
300	12089
300	12091
300	12093
300	12095
300	12097
300	12099
300	12101
300	12103
300	12105
300	12107
301	12109
300	12111
300	12113
300	12115
300	12118
299	12120
299	12122
299	12124
299	12126
298	12128
298	12130
298	12132
298	12134
297	12136
297	12138
297	12140
297	12142
297	12144
297	12146
297	12148
296	12150
296	12152
296	12154
296	12156
296	12158
296	12160
296	12162
296	12164
296	12166
295	12168
295	12170
295	12172
295	12174
295	12176
296	12178
295	12180
295	12182
295	12184
295	12186
295	12188
295	12190
295	12192
295	12194
295	12196
295	12198
295	12200
295	12203
295	12205
294	12207
295	12209
295	12211
295	12213
295	12215
295	12217
295	12219
295	12221
295	12223
295	12225
295	12227
295	12229
295	12231
295	12233
295	12235
295	12237
295	12239
295	12241
295	12243
295	12246
295	12248
295	12250
295	12252
294	12254
294	12256
294	12258
295	12260
294	12262
295	12264
294	12266
294	12268
294	12270
294	12272
294	12274
294	12276
294	12278
294	12280
294	12282
294	12284
293	12286
293	12288
293	12290
293	12292
293	12294
294	12296
293	12298
293	12300
293	12302
292	12304
293	12306
293	12308
293	12310
293	12312
293	12314
293	12316
293	12318
292	12320
293	12322
292	12324
293	12326
293	12328
293	12331
293	12333
293	12335
292	12337
293	12339
292	12341
292	12343
293	12345
292	12347
293	12349
293	12351
292	12353
292	12355
292	12357
292	12359
293	12361
293	12363
292	12365
292	12367
292	12369
292	12371
292	12374
292	12376
293	12378
293	12380
292	12382
292	12384
292	12386
292	12388
292	12390
292	12392
293	12394
293	12396
294	12398
294	12400
294	12402
294	12404
295	12406
295	12408
296	12410
296	12412
297	12414
297	12416
297	12418
298	12420
298	12422
299	12424
299	12426
299	12428
300	12430
300	12432
301	12434
301	12436
301	12438
301	12440
302	12442
302	12444
303	12446
303	12448
302	12450
303	12452
303	12454
303	12456
304	12459
304	12461
304	12463
303	12465
303	12467
303	12469
302	12471
302	12473
302	12475
301	12477
301	12479
301	12481
300	12483
300	12485
299	12487
299	12489
298	12491
298	12493
298	12495
297	12497
297	12499
297	12502
296	12504
296	12506
295	12508
295	12510
295	12512
294	12514
294	12516
294	12518
293	12520
293	12522
293	12524
293	12526
293	12528
293	12530
292	12532
292	12534
292	12536
292	12538
291	12540
291	12542
291	12544
291	12546
290	12548
289	12550
288	12552
287	12554
286	12556
286	12558
286	12560
287	12562
289	12564
291	12566
293	12568
296	12570
299	12572
302	12574
306	12576
309	12578
311	12580
312	12582
312	12584
312	12587
310	12589
308	12591
305	12593
303	12595
300	12597
298	12599
296	12601
294	12603
293	12605
293	12607
293	12609
292	12611
292	12613
292	12615
291	12617
291	12619
291	12621
291	12623
291	12625
291	12627
291	12630
291	12632
290	12634
290	12636
290	12638
290	12640
291	12642
290	12644
291	12646
291	12648
290	12650
291	12652
290	12654
290	12656
291	12658
291	12660
291	12662
291	12664
291	12666
291	12668
291	12670
292	12672
292	12674
292	12676
292	12678
292	12680
293	12682
293	12684
292	12686
292	12688
293	12690
293	12692
293	12694
294	12696
294	12698
294	12700
294	12702
295	12704
295	12706
295	12708
295	12710
296	12712
296	12715
296	12717
296	12719
296	12721
296	12723
297	12725
297	12727
297	12729
297	12731
297	12733
297	12735
298	12737
298	12739
298	12741
299	12743
299	12745
299	12747
299	12749
299	12751
299	12753
299	12755
300	12758
300	12760
300	12762
301	12764
301	12766
301	12768
301	12770
301	12772
301	12774
301	12776
302	12778
302	12780
302	12782
302	12784
303	12786
303	12788
303	12790
303	12792
303	12794
303	12796
304	12798
304	12800
304	12802
303	12804
304	12806
304	12808
304	12810
305	12812
305	12814
305	12816
304	12818
304	12820
305	12822
305	12824
305	12826
305	12828
305	12830
304	12832
304	12834
304	12836
304	12838
303	12840
303	12843
303	12845
303	12847
303	12849
302	12851
301	12853
301	12855
301	12857
300	12859
300	12861
300	12863
300	12865
299	12867
299	12869
299	12871
298	12873
298	12875
298	12877
298	12879
298	12881
297	12883
297	12886
297	12888
296	12890
296	12892
297	12894
296	12896
296	12898
296	12900
296	12902
296	12904
295	12906
295	12908
296	12910
296	12912
296	12914
296	12916
296	12918
296	12920
295	12922
295	12924
296	12926
296	12928
296	12930
296	12932
296	12934
295	12936
295	12938
296	12940
296	12942
296	12944
296	12946
296	12948
295	12950
295	12952
295	12954
296	12956
295	12958
296	12960
296	12962
296	12964
296	12966
296	12968
296	12971
296	12973
296	12975
296	12977
296	12979
296	12981
296	12983
296	12985
295	12987
296	12989
296	12991
296	12993
296	12995
296	12997
296	12999
296	13001
295	13003
296	13005
295	13007
296	13009
296	13011
296	13014
296	13016
296	13018
296	13020
296	13022
296	13024
296	13026
296	13028
296	13030
296	13032
296	13034
295	13036
295	13038
295	13040
295	13042
296	13044
296	13046
295	13048
296	13050
295	13052
295	13054
295	13056
295	13058
295	13060
295	13062
296	13064
295	13066
295	13068
295	13070
295	13072
296	13074
296	13076
296	13078
297	13080
298	13082
298	13084
298	13086
298	13088
298	13090
299	13092
299	13094
300	13096
300	13099
300	13101
300	13103
300	13105
301	13107
301	13109
301	13111
302	13113
302	13115
302	13117
302	13119
302	13121
302	13123
303	13125
303	13127
303	13129
303	13131
303	13133
303	13135
303	13137
303	13139
303	13142
302	13144
302	13146
302	13148
301	13150
301	13152
300	13154
300	13156
300	13158
299	13160
299	13162
298	13164
298	13166
297	13168
297	13170
296	13172
296	13174
296	13176
296	13178
295	13180
295	13182
295	13184
294	13186
294	13188
293	13190
293	13192
293	13194
293	13196
293	13198
292	13200
292	13202
292	13204
291	13206
291	13208
291	13210
291	13212
292	13214
291	13216
291	13218
290	13220
289	13222
289	13224
288	13227
287	13229
287	13231
286	13233
286	13235
287	13237
288	13239
289	13241
292	13243
295	13245
298	13247
301	13249
304	13251
307	13253
309	13255
311	13257
312	13259
312	13261
312	13263
310	13265
307	13267
305	13270
302	13272
299	13274
297	13276
296	13278
295	13280
294	13282
293	13284
292	13286
292	13288
291	13290
291	13292
291	13294
291	13296
291	13298
291	13300
291	13302
290	13304
290	13306
290	13308
290	13310
290	13312
290	13314
290	13316
289	13318
289	13320
289	13322
289	13324
289	13326
290	13328
290	13330
290	13332
290	13334
289	13336
289	13338
289	13340
289	13342
290	13344
290	13346
290	13348
290	13350
290	13352
290	13355
290	13357
290	13359
291	13361
291	13363
291	13365
291	13367
291	13369
292	13371
291	13373
292	13375
292	13377
292	13379
292	13381
293	13383
293	13385
293	13387
293	13389
293	13391
294	13393
294	13395
295	13398
295	13400
295	13402
295	13404
295	13406
295	13408
296	13410
296	13412
296	13414
297	13416
297	13418
297	13420
297	13422
297	13424
297	13426
298	13428
298	13430
299	13432
299	13434
299	13436
299	13438
299	13440
300	13442
300	13444
301	13446
300	13448
301	13450
301	13452
301	13454
301	13456
301	13458
302	13460
302	13462
302	13464
302	13466
302	13468
302	13470
303	13472
303	13474
303	13476
304	13478
304	13480
304	13483
304	13485
304	13487
304	13489
304	13491
304	13493
305	13495
305	13497
305	13499
305	13501
305	13503
305	13505
305	13507
304	13509
304	13511
304	13513
304	13515
304	13517
303	13519
303	13521
302	13523
302	13526
302	13528
302	13530
302	13532
301	13534
301	13536
300	13538
300	13540
300	13542
300	13544
299	13546
299	13548
299	13550
298	13552
298	13554
298	13556
298	13558
298	13560
297	13562
297	13564
297	13566
297	13568
296	13570
296	13572
296	13574
296	13576
296	13578
296	13580
296	13582
296	13584
295	13586
295	13588
295	13590
295	13592
295	13594
296	13596
295	13598
295	13600
295	13602
295	13604
295	13606
295	13608
295	13611
296	13613
295	13615
295	13617
295	13619
295	13621
295	13623
295	13625
295	13627
296	13629
295	13631
295	13633
295	13635
295	13637
295	13639
295	13641
295	13643
296	13645
295	13647
295	13649
296	13651
295	13654
295	13656
295	13658
295	13660
295	13662
295	13664
295	13666
295	13668
295	13670
295	13672
295	13674
295	13676
295	13678
295	13680
295	13682
295	13684
295	13686
295	13688
295	13690
295	13692
296	13694
295	13696
296	13698
295	13700
295	13702
295	13704
295	13706
295	13708
295	13710
295	13712
295	13714
295	13716
295	13718
295	13720
295	13722
295	13724
295	13726
295	13728
296	13730
296	13732
296	13734
297	13736
297	13739
297	13741
298	13743
298	13745
299	13747
299	13749
299	13751
300	13753
300	13755
300	13757
301	13759
301	13761
301	13763
302	13765
302	13767
302	13769
302	13771
302	13773
303	13775
303	13777
303	13779
303	13782
303	13784
303	13786
303	13788
303	13790
303	13792
303	13794
303	13796
302	13798
301	13800
301	13802
300	13804
300	13806
300	13808
299	13810
299	13812
298	13814
298	13816
297	13818
297	13820
296	13822
296	13824
296	13826
295	13828
295	13830
295	13832
294	13834
294	13836
293	13838
293	13840
293	13842
292	13844
292	13846
292	13848
292	13850
292	13852
291	13854
291	13856
290	13858
291	13860
290	13862
291	13864
290	13867
290	13869
290	13871
289	13873
289	13875
289	13877
289	13879
288	13881
287	13883
286	13885
285	13887
285	13889
285	13891
285	13893
286	13895
289	13897
291	13899
293	13901
296	13903
299	13905
302	13907
305	13910
308	13912
309	13914
310	13916
310	13918
309	13920
307	13922
305	13924
303	13926
300	13928
298	13930
296	13932
294	13934
293	13936
292	13938
291	13940
291	13942
291	13944
291	13946
290	13948
290	13950
290	13952
290	13954
290	13956
289	13958
290	13960
290	13962
290	13964
290	13966
290	13968
290	13970
290	13972
289	13974
290	13976
290	13978
290	13980
290	13982
290	13984
290	13986
289	13988
290	13990
290	13992
291	13995
291	13997
291	13999
291	14001
291	14003
291	14005
291	14007
291	14009
292	14011
292	14013
292	14015
292	14017
292	14019
292	14021
292	14023
292	14025
293	14027
293	14029
293	14031
293	14033
293	14035
294	14038
294	14040
294	14042
294	14044
294	14046
295	14048
295	14050
295	14052
295	14054
295	14056
295	14058
296	14060
296	14062
296	14064
296	14066
296	14068
296	14070
296	14072
296	14074
297	14076
297	14078
298	14080
298	14082
298	14084
298	14086
298	14088
298	14090
299	14092
299	14094
299	14096
300	14098
300	14100
300	14102
300	14104
301	14106
301	14108
301	14110
301	14112
302	14114
301	14116
302	14118
302	14120
302	14123
302	14125
302	14127
303	14129
303	14131
303	14133
303	14135
303	14137
304	14139
304	14141
304	14143
304	14145
305	14147
305	14149
305	14151
304	14153
305	14155
305	14157
304	14159
304	14161
304	14163
304	14166
304	14168
303	14170
303	14172
303	14174
303	14176
303	14178
303	14180
302	14182
302	14184
302	14186
301	14188
301	14190
300	14192
300	14194
300	14196
300	14198
300	14200
299	14202
298	14204
298	14206
298	14208
298	14210
298	14212
298	14214
298	14216
297	14218
297	14220
296	14222
296	14224
296	14226
296	14228
296	14230
296	14232
296	14234
296	14236
295	14238
296	14240
295	14242
295	14244
296	14246
295	14248
295	14251
295	14253
295	14255
295	14257
295	14259
295	14261
295	14263
295	14265
295	14267
295	14269
295	14271
295	14273
295	14275
295	14277
295	14279
295	14281
295	14283
295	14285
295	14287
295	14289
294	14291
295	14294
295	14296
295	14298
295	14300
295	14302
295	14304
295	14306
295	14308
295	14310
295	14312
295	14314
295	14316
295	14318
295	14320
295	14322
295	14324
295	14326
295	14328
295	14330
295	14332
295	14334
295	14336
295	14338
295	14340
295	14342
295	14344
295	14346
295	14348
295	14350
295	14352
295	14354
296	14356
296	14358
296	14360
297	14362
297	14364
298	14366
298	14368
299	14370
299	14372
299	14374
300	14376
300	14379
301	14381
301	14383
301	14385
302	14387
302	14389
302	14391
303	14393
303	14395
304	14397
304	14399
304	14401
304	14403
304	14405
303	14407
304	14409
304	14411
304	14413
304	14415
304	14417
304	14419
303	14422
303	14424
303	14426
302	14428
302	14430
302	14432
301	14434
301	14436
300	14438
299	14440
299	14442
298	14444
298	14446
298	14448
297	14450
297	14452
296	14454
295	14456
295	14458
295	14460
295	14462
294	14464
294	14466
293	14468
293	14470
293	14472
292	14474
292	14476
292	14478
292	14480
292	14482
292	14484
291	14486
291	14488
291	14490
291	14492
291	14494
290	14496
290	14498
290	14500
290	14502
289	14504
288	14507
287	14509
287	14511
286	14513
285	14515
285	14517
285	14519
286	14521
287	14523
289	14525
292	14527
296	14529
299	14531
303	14533
306	14535
309	14537
312	14539
313	14541
313	14543
312	14545
311	14547
308	14550
304	14552
302	14554
299	14556
297	14558
296	14560
295	14562
294	14564
294	14566
293	14568
293	14570
292	14572
292	14574
292	14576
291	14578
291	14580
291	14582
291	14584
291	14586
290	14588
290	14590
290	14592
290	14594
290	14596
290	14598
290	14600
290	14602
289	14604
290	14606
289	14608
289	14610
290	14612
290	14614
290	14616
290	14618
290	14620
290	14622
290	14624
290	14626
290	14628
290	14630
290	14632
290	14635
290	14637
290	14639
290	14641
291	14643
291	14645
291	14647
292	14649
291	14651
292	14653
292	14655
291	14657
292	14659
293	14661
292	14663
293	14665
293	14667
293	14669
293	14671
293	14673
293	14675
294	14678
294	14680
294	14682
294	14684
294	14686
294	14688
294	14690
295	14692
295	14694
295	14696
296	14698
296	14700
296	14702
296	14704
296	14706
296	14708
297	14710
297	14712
297	14714
298	14716
298	14718
298	14720
299	14722
299	14724
299	14726
300	14728
300	14730
300	14732
301	14734
301	14736
301	14738
301	14740
302	14742
302	14744
303	14746
303	14748
303	14750
303	14752
303	14754
304	14756
304	14758
304	14760
304	14763
305	14765
305	14767
305	14769
305	14771
305	14773
305	14775
305	14777
305	14779
305	14781
305	14783
305	14785
304	14787
304	14789
304	14791
304	14793
304	14795
304	14797
303	14799
304	14801
303	14803
302	14806
302	14808
302	14810
301	14812
301	14814
301	14816
300	14818
300	14820
300	14822
299	14824
299	14826
299	14828
299	14830
298	14832
298	14834
297	14836
297	14838
297	14840
297	14842
296	14844
297	14846
297	14848
296	14850
296	14852
296	14854
296	14856
296	14858
295	14860
296	14862
296	14864
296	14866
296	14868
295	14870
295	14872
295	14874
295	14876
296	14878
296	14880
296	14882
295	14884
295	14886
295	14888
295	14891
295	14893
295	14895
296	14897
295	14899
295	14901
295	14903
295	14905
295	14907
295	14909
295	14911
295	14913
295	14915
295	14917
296	14919
295	14921
295	14923
295	14925
295	14927
296	14929
296	14931
296	14934
296	14936
296	14938
296	14940
295	14942
296	14944
296	14946
296	14948
296	14950
296	14952
296	14954
296	14956
296	14958
296	14960
296	14962
296	14964
296	14966
297	14968
297	14970
297	14972
297	14974
298	14976
298	14978
299	14980
300	14982
300	14984
300	14986
301	14988
301	14990
301	14992
302	14994
302	14996
303	14998
303	15000
303	15002
304	15004
304	15006
304	15008
304	15010
305	15012
305	15014
305	15016
305	15019
305	15021
304	15023
304	15025
304	15027
304	15029
304	15031
304	15033
304	15035
304	15037
303	15039
303	15041
303	15043
302	15045
302	15047
302	15049
301	15051
300	15053
299	15055
299	15057
298	15059
298	15062
298	15064
297	15066
296	15068
296	15070
295	15072
294	15074
294	15076
294	15078
293	15080
293	15082
292	15084
292	15086
291	15088
291	15090
291	15092
291	15094
291	15096
290	15098
290	15100
290	15102
290	15104
289	15106
289	15108
289	15110
289	15112
289	15114
289	15116
288	15118
288	15120
287	15122
286	15124
285	15126
284	15128
283	15130
283	15132
283	15134
283	15136
285	15138
287	15140
290	15142
293	15144
296	15147
301	15149
304	15151
308	15153
311	15155
313	15157
313	15159
313	15161
312	15163
310	15165
307	15167
304	15169
302	15171
299	15173
298	15175
297	15177
296	15179
296	15181
295	15183
294	15185
294	15187
293	15190
293	15192
293	15194
293	15196
293	15198
293	15200
292	15202
292	15204
292	15206
291	15208
291	15210
291	15212
291	15214
291	15216
290	15218
290	15220
290	15222
290	15224
290	15226
290	15228
290	15230
290	15232
290	15234
290	15236
290	15238
290	15240
290	15242
290	15244
290	15246
290	15248
291	15250
291	15252
290	15254
291	15256
291	15258
291	15260
291	15262
291	15264
292	15266
292	15268
292	15270
292	15272
292	15275
292	15277
292	15279
293	15281
293	15283
293	15285
292	15287
292	15289
293	15291
293	15293
293	15295
294	15297
294	15299
294	15301
294	15303
294	15305
294	15307
294	15309
295	15311
295	15313
295	15315
296	15318
296	15320
296	15322
296	15324
296	15326
297	15328
297	15330
297	15332
298	15334
298	15336
298	15338
298	15340
298	15342
299	15344
299	15346
300	15348
300	15350
300	15352
300	15354
300	15356
300	15358
301	15360
301	15362
302	15364
302	15366
302	15368
302	15370
302	15372
302	15374
302	15376
303	15378
303	15380
304	15382
304	15384
304	15386
304	15388
304	15390
304	15392
304	15394
304	15396
304	15398
304	15400
304	15403
304	15405
303	15407
303	15409
303	15411
303	15413
303	15415
302	15417
302	15419
301	15421
301	15423
301	15425
300	15427
301	15429
300	15431
300	15433
299	15435
299	15437
298	15439
298	15441
298	15443
298	15446
298	15448
297	15450
297	15452
297	15454
297	15456
296	15458
296	15460
296	15462
296	15464
296	15466
296	15468
296	15470
296	15472
296	15474
295	15476
296	15478
296	15480
295	15482
296	15484
295	15486
295	15488
295	15490
295	15492
295	15494
296	15496
296	15498
296	15500
296	15502
296	15504
295	15506
295	15508
295	15510
295	15512
296	15514
295	15516
295	15518
295	15520
295	15522
295	15524
295	15526
295	15528
296	15531
295	15533
296	15535
296	15537
295	15539
295	15541
295	15543
296	15545
296	15547
296	15549
296	15551
296	15553
295	15555
295	15557
295	15559
295	15561
295	15563
295	15565
296	15567
296	15569
295	15571
295	15574
295	15576
295	15578
296	15580
296	15582
296	15584
297	15586
297	15588
298	15590
298	15592
298	15594
299	15596
300	15598
300	15600
300	15602
300	15604
301	15606
301	15608
301	15610
302	15612
302	15614
303	15616
303	15618
302	15620
303	15622
303	15624
303	15626
303	15628
303	15630
304	15632
303	15634
303	15636
303	15638
303	15640
303	15642
303	15644
303	15646
303	15648
302	15650
302	15652
301	15654
300	15656
300	15659
300	15661
299	15663
298	15665
298	15667
297	15669
297	15671
296	15673
295	15675
294	15677
294	15679
294	15681
293	15683
293	15685
293	15687
292	15689
291	15691
291	15693
291	15695
291	15697
290	15699
290	15702
289	15704
289	15706
289	15708
289	15710
288	15712
288	15714
288	15716
288	15718
288	15720
287	15722
287	15724
287	15726
287	15728
287	15730
286	15732
285	15734
284	15736
283	15738
282	15740
281	15742
281	15744
281	15746
281	15748
283	15750
284	15752
287	15754
290	15756
293	15758
297	15760
302	15762
305	15764
309	15766
312	15768
313	15770
313	15772
312	15774
310	15776
308	15778
305	15780
303	15782
301	15784
299	15787
297	15789
297	15791
296	15793
296	15795
295	15797
295	15799
294	15801
294	15803
293	15805
293	15807
292	15809
292	15811
292	15813
291	15815
291	15817
291	15819
291	15821
290	15823
289	15825
290	15827
290	15830
289	15832
289	15834
289	15836
289	15838
289	15840
288	15842
289	15844
289	15846
288	15848
288	15850
288	15852
288	15854
288	15856
288	15858
289	15860
289	15862
289	15864
289	15866
289	15868
289	15870
289	15872
289	15874
289	15876
290	15878
290	15880
290	15882
290	15884
290	15886
290	15888
291	15890
291	15892
290	15894
291	15896
291	15898
291	15900
291	15902
291	15904
292	15906
291	15908
292	15910
293	15912
293	15915
293	15917
293	15919
293	15921
293	15923
293	15925
294	15927
294	15929
294	15931
295	15933
295	15935
295	15937
295	15939
295	15941
295	15943
296	15945
296	15947
296	15949
296	15951
297	15953
297	15955
297	15958
297	15960
298	15962
298	15964
298	15966
298	15968
298	15970
298	15972
298	15974
299	15976
299	15978
299	15980
300	15982
300	15984
300	15986
300	15988
300	15990
301	15992
301	15994
302	15996
302	15998
302	16000
302	16002
302	16004
302	16006
302	16008
302	16010
302	16012
303	16014
302	16016
302	16018
302	16020
302	16022
301	16024
301	16026
301	16028
301	16030
301	16032
300	16034
300	16036
300	16038
299	16040
299	16043
298	16045
299	16047
298	16049
298	16051
297	16053
297	16055
297	16057
296	16059
296	16061
297	16063
297	16065
296	16067
296	16069
296	16071
296	16073
296	16075
296	16077
296	16079
296	16081
296	16083
296	16086
295	16088
295	16090
295	16092
295	16094
295	16096
295	16098
295	16100
296	16102
295	16104
295	16106
295	16108
295	16110
295	16112
295	16114
295	16116
295	16118
295	16120
295	16122
295	16124
294	16126
295	16128
295	16130
295	16132
295	16134
295	16136
295	16138
294	16140
295	16142
295	16144
295	16146
295	16148
295	16150
294	16152
294	16154
294	16156
294	16158
294	16160
294	16162
294	16164
294	16166
294	16168
294	16171
293	16173
293	16175
293	16177
293	16179
293	16181
294	16183
293	16185
293	16187
293	16189
293	16191
294	16193
295	16195
295	16197
295	16199
296	16201
297	16203
297	16205
297	16207
298	16209
298	16211
299	16214
299	16216
299	16218
300	16220
300	16222
300	16224
301	16226
302	16228
302	16230
303	16232
303	16234
304	16236
303	16238
303	16240
304	16242
304	16244
304	16246
304	16248
304	16250
304	16252
304	16254
304	16256
304	16258
304	16260
304	16262
303	16264
303	16266
302	16268
301	16270
301	16272
300	16274
300	16276
299	16278
299	16280
299	16282
298	16284
297	16286
296	16288
296	16290
295	16292
295	16294
294	16296
294	16299
293	16301
293	16303
292	16305
292	16307
291	16309
291	16311
290	16313
290	16315
290	16317
289	16319
289	16321
289	16323
288	16325
288	16327
288	16329
288	16331
288	16333
288	16335
288	16337
287	16339
287	16342
287	16344
286	16346
286	16348
285	16350
284	16352
283	16354
282	16356
282	16358
282	16360
283	16362
285	16364
288	16366
290	16368
293	16370
296	16372
300	16374
304	16376
307	16378
310	16380
312	16382
312	16384
311	16386
310	16388
308	16390
305	16392
302	16394
300	16396
297	16398
295	16400
294	16402
292	16404
291	16406
291	16408
290	16410
290	16412
290	16414
290	16416
289	16418
289	16420
289	16422
288	16424
288	16427
289	16429
288	16431
288	16433
288	16435
288	16437
288	16439
288	16441
287	16443
288	16445
288	16447
288	16449
288	16451
288	16453
288	16455
288	16457
288	16459
288	16461
288	16463
288	16465
289	16467
289	16470
289	16472
289	16474
289	16476
289	16478
289	16480
290	16482
290	16484
290	16486
290	16488
290	16490
290	16492
291	16494
291	16496
291	16498
291	16500
292	16502
292	16504
292	16506
292	16508
293	16510
293	16512
293	16514
293	16516
293	16518
293	16520
294	16522
294	16524
294	16526
294	16528
295	16530
295	16532
295	16534
295	16536
296	16538
296	16540
296	16542
296	16544
297	16546
297	16548
297	16550
298	16552
298	16555
298	16557
298	16559
298	16561
299	16563
299	16565
299	16567
300	16569
300	16571
300	16573
300	16575
300	16577
301	16579
301	16581
301	16583
302	16585
301	16587
302	16589
302	16591
302	16593
303	16595
303	16598
303	16600
304	16602
303	16604
304	16606
304	16608
304	16610
304	16612
304	16614
304	16616
305	16618
304	16620
305	16622
304	16624
304	16626
305	16628
304	16630
304	16632
304	16634
304	16636
303	16638
303	16640
303	16642
303	16644
302	16646
303	16648
302	16650
302	16652
301	16654
301	16656
301	16658
300	16660
300	16662
300	16664
300	16666
299	16668
299	16670
299	16672
298	16674
298	16676
298	16678
298	16680
298	16683
298	16685
298	16687
297	16689
297	16691
297	16693
297	16695
297	16697
297	16699
296	16701
297	16703
296	16705
296	16707
296	16709
296	16711
296	16713
296	16715
295	16717
295	16719
295	16721
295	16723
295	16726
295	16728
296	16730
296	16732
296	16734
296	16736
296	16738
296	16740
295	16742
295	16744
296	16746
296	16748
296	16750
296	16752
296	16754
296	16756
296	16758
296	16760
296	16762
296	16764
296	16766
296	16768
296	16770
296	16772
296	16774
295	16776
296	16778
296	16780
297	16782
297	16784
298	16786
298	16788
298	16790
299	16792
299	16794
300	16796
300	16798
301	16800
301	16802
301	16804
301	16806
302	16808
302	16811
303	16813
303	16815
304	16817
304	16819
305	16821
305	16823
305	16825
305	16827
306	16829
306	16831
306	16833
306	16835
306	16837
306	16839
306	16841
306	16843
306	16845
305	16847
305	16849
304	16851
304	16854
303	16856
302	16858
302	16860
302	16862
301	16864
301	16866
300	16868
299	16870
298	16872
298	16874
298	16876
297	16878
297	16880
296	16882
296	16884
295	16886
295	16888
294	16890
293	16892
293	16894
293	16896
293	16898
293	16900
292	16902
292	16904
291	16906
291	16908
291	16910
291	16912
290	16914
291	16916
290	16918
290	16920
290	16922
289	16924
289	16926
289	16928
289	16930
289	16932
287	16934
286	16936
286	16939
285	16941
284	16943
284	16945
284	16947
285	16949
287	16951
288	16953
291	16955
294	16957
296	16959
300	16961
303	16963
306	16965
309	16967
310	16969
310	16971
310	16973
309	16975
306	16977
304	16979
301	16982
299	16984
296	16986
295	16988
293	16990
292	16992
291	16994
291	16996
290	16998
290	17000
290	17002
289	17004
289	17006
288	17008
289	17010
289	17012
288	17014
289	17016
288	17018
288	17020
288	17022
288	17024
288	17026
288	17028
288	17030
288	17032
288	17034
288	17036
288	17038
288	17040
288	17042
288	17044
288	17046
288	17048
289	17050
289	17052
289	17054
289	17056
289	17058
289	17060
290	17062
290	17064
290	17067
290	17069
290	17071
290	17073
290	17075
290	17077
291	17079
291	17081
292	17083
292	17085
292	17087
292	17089
292	17091
292	17093
293	17095
293	17097
293	17099
294	17101
294	17103
294	17105
294	17107
294	17110
295	17112
295	17114
296	17116
296	17118
296	17120
296	17122
296	17124
296	17126
296	17128
297	17130
297	17132
297	17134
297	17136
298	17138
298	17140
298	17142
298	17144
298	17146
298	17148
299	17150
299	17152
299	17154
299	17156
299	17158
299	17160
300	17162
300	17164
300	17166
300	17168
300	17170
300	17172
300	17174
301	17176
301	17178
302	17180
302	17182
302	17184
302	17186
302	17188
303	17190
303	17192
303	17195
304	17197
304	17199
304	17201
304	17203
304	17205
304	17207
304	17209
304	17211
304	17213
304	17215
303	17217
304	17219
303	17221
303	17223
303	17225
302	17227
302	17229
302	17231
302	17233
302	17235
301	17238
301	17240
301	17242
300	17244
301	17246
300	17248
300	17250
300	17252
299	17254
299	17256
299	17258
298	17260
299	17262
298	17264
298	17266
298	17268
298	17270
298	17272
297	17274
297	17276
298	17278
297	17280
297	17282
297	17284
297	17286
297	17288
297	17290
297	17292
297	17294
297	17296
297	17298
297	17300
297	17302
297	17304
296	17306
296	17308
296	17310
296	17312
297	17314
297	17316
297	17318
297	17320
296	17323
296	17325
296	17327
296	17329
297	17331
296	17333
296	17335
296	17337
296	17339
296	17341
296	17343
296	17345
296	17347
296	17349
296	17351
297	17353
296	17355
297	17357
297	17359
297	17361
298	17363
299	17366
299	17368
300	17370
300	17372
300	17374
300	17376
301	17378
301	17380
302	17382
302	17384
303	17386
303	17388
303	17390
304	17392
304	17394
305	17396
305	17398
306	17400
306	17402
306	17404
306	17406
306	17408
306	17410
306	17412
306	17414
306	17416
306	17418
306	17420
306	17422
306	17424
305	17426
305	17428
305	17430
304	17432
304	17434
303	17436
302	17438
302	17440
300	17442
300	17444
300	17446
299	17448
298	17451
298	17453
297	17455
296	17457
296	17459
296	17461
295	17463
295	17465
294	17467
294	17469
293	17471
292	17473
292	17475
292	17477
291	17479
291	17481
291	17483
290	17485
290	17487
289	17489
289	17491
289	17494
289	17496
289	17498
289	17500
288	17502
288	17504
288	17506
287	17508
287	17510
286	17512
286	17514
285	17516
284	17518
283	17520
283	17522
282	17524
283	17526
285	17528
287	17530
289	17532
292	17534
294	17536
297	17538
300	17540
303	17542
306	17544
308	17546
309	17548
309	17550
308	17552
306	17554
304	17556
301	17558
298	17560
296	17562
294	17564
293	17566
291	17568
290	17570
290	17572
289	17574
288	17576
288	17579
288	17581
288	17583
288	17585
288	17587
288	17589
287	17591
287	17593
287	17595
288	17597
287	17599
287	17601
287	17603
287	17605
287	17607
287	17609
287	17611
287	17613
287	17615
287	17617
288	17619
288	17622
288	17624
288	17626
288	17628
288	17630
288	17632
289	17634
289	17636
289	17638
289	17640
289	17642
289	17644
289	17646
290	17648
290	17650
290	17652
290	17654
290	17656
290	17658
291	17660
291	17662
291	17664
292	17666
292	17668
292	17670
292	17672
292	17674
292	17676
293	17678
293	17680
294	17682
294	17684
294	17686
294	17688
294	17690
294	17692
294	17694
295	17696
295	17698
296	17700
296	17702
296	17704
296	17707
296	17709
297	17711
297	17713
297	17715
298	17717
298	17719
298	17721
298	17723
298	17725
298	17727
299	17729
299	17731
299	17733
300	17735
300	17737
300	17739
300	17741
300	17743
301	17745
301	17747
301	17750
301	17752
301	17754
302	17756
301	17758
302	17760
302	17762
302	17764
303	17766
303	17768
303	17770
303	17772
303	17774
303	17776
304	17778
304	17780
304	17782
305	17784
304	17786
304	17788
304	17790
304	17792
304	17794
304	17796
304	17798
304	17800
303	17802
303	17804
303	17806
303	17808
302	17810
302	17812
302	17814
302	17816
301	17818
301	17820
301	17822
300	17824
300	17826
300	17828
300	17830
300	17832
299	17835
299	17837
299	17839
299	17841
299	17843
298	17845
299	17847
299	17849
298	17851
298	17853
298	17855
298	17857
298	17859
298	17861
298	17863
298	17865
298	17867
298	17869
298	17871
298	17873
298	17875
298	17878
298	17880
298	17882
298	17884
298	17886
298	17888
297	17890
298	17892
298	17894
298	17896
298	17898
298	17900
298	17902
298	17904
297	17906
297	17908
297	17910
297	17912
297	17914
297	17916
297	17918
297	17920
297	17922
297	17924
297	17926
297	17928
297	17930
297	17932
298	17934
298	17936
298	17938
298	17940
299	17942
299	17944
300	17946
301	17948
301	17950
301	17952
302	17954
302	17956
302	17958
303	17960
303	17963
304	17965
304	17967
305	17969
305	17971
305	17973
305	17975
306	17977
307	17979
307	17981
308	17983
307	17985
308	17987
308	17989
308	17991
308	17993
308	17995
308	17997
308	17999
307	18001
307	18003
306	18006
305	18008
305	18010
304	18012
304	18014
304	18016
303	18018
303	18020
302	18022
301	18024
300	18026
299	18028
299	18030
298	18032
298	18034
297	18036
296	18038
295	18040
295	18042
294	18044
294	18046
294	18048
294	18050
293	18052
292	18054
292	18056
291	18058
291	18060
290	18062
290	18064
290	18066
290	18068
289	18070
289	18072
288	18074
288	18076
288	18078
288	18080
288	18082
288	18084
287	18086
287	18088
285	18091
285	18093
284	18095
282	18097
282	18099
281	18101
280	18103
280	18105
282	18107
283	18109
286	18111
289	18113
292	18115
296	18117
300	18119
303	18121
306	18123
308	18125
309	18127
309	18129
308	18131
306	18134
303	18136
301	18138
298	18140
296	18142
294	18144
293	18146
292	18148
292	18150
292	18152
291	18154
291	18156
290	18158
290	18160
290	18162
290	18164
290	18166
290	18168
289	18170
289	18172
289	18174
289	18176
288	18178
289	18180
289	18182
289	18184
289	18186
288	18188
288	18190
288	18192
288	18194
289	18196
288	18198
289	18200
289	18202
289	18204
289	18206
288	18208
289	18210
289	18212
289	18214
289	18216
290	18219
289	18221
289	18223
289	18225
290	18227
290	18229
290	18231
290	18233
291	18235
291	18237
291	18239
291	18241
291	18243
292	18245
292	18247
292	18249
293	18251
293	18253
293	18255
293	18257
293	18259
294	18262
294	18264
294	18266
295	18268
295	18270
295	18272
295	18274
295	18276
295	18278
296	18280
296	18282
297	18284
297	18286
297	18288
297	18290
297	18292
298	18294
298	18296
299	18298
299	18300
299	18302
299	18304
299	18306
299	18308
300	18310
300	18312
301	18314
301	18316
301	18318
301	18320
301	18322
302	18324
302	18326
302	18328
302	18330
303	18332
303	18334
303	18336
303	18338
303	18340
303	18342
303	18344
304	18347
304	18349
304	18351
305	18353
304	18355
304	18357
304	18359
304	18361
305	18363
305	18365
305	18367
305	18369
304	18371
304	18373
304	18375
304	18377
304	18379
304	18381
303	18383
303	18385
303	18387
302	18390
302	18392
301	18394
301	18396
301	18398
301	18400
300	18402
300	18404
300	18406
299	18408
298	18410
298	18412
298	18414
298	18416
298	18418
297	18420
297	18422
297	18424
296	18426
296	18428
296	18430
297	18432
296	18434
296	18436
296	18438
296	18440
296	18442
295	18444
295	18446
296	18448
296	18450
295	18452
296	18454
295	18456
295	18458
295	18460
295	18462
295	18464
295	18466
295	18468
295	18470
295	18472
295	18475
295	18477
295	18479
295	18481
295	18483
295	18485
295	18487
295	18489
295	18491
295	18493
295	18495
295	18497
295	18499
295	18501
295	18503
295	18505
294	18507
295	18509
295	18511
295	18513
295	18515
295	18518
295	18520
295	18522
295	18524
294	18526
294	18528
295	18530
295	18532
295	18534
295	18536
295	18538
295	18540
296	18542
296	18544
297	18546
298	18548
298	18550
299	18552
299	18554
299	18556
300	18558
300	18560
301	18562
301	18564
301	18566
302	18568
302	18570
303	18572
303	18574
303	18576
304	18578
304	18580
304	18582
305	18584
305	18586
305	18588
305	18590
305	18592
305	18594
305	18596
305	18598
305	18600
305	18603
305	18605
304	18607
304	18609
303	18611
303	18613
303	18615
302	18617
302	18619
301	18621
300	18623
299	18625
299	18627
298	18629
298	18631
297	18633
297	18635
296	18637
295	18639
295	18641
294	18643
294	18646
294	18648
293	18650
292	18652
292	18654
292	18656
291	18658
291	18660
290	18662
291	18664
290	18666
290	18668
290	18670
289	18672
289	18674
289	18676
289	18678
289	18680
289	18682
289	18684
288	18686
288	18688
288	18690
288	18692
287	18694
286	18696
285	18698
284	18700
283	18702
282	18704
282	18706
282	18708
282	18710
284	18712
287	18714
290	18716
293	18718
296	18720
300	18722
303	18724
307	18726
310	18728
312	18731
312	18733
311	18735
309	18737
307	18739
304	18741
301	18743
299	18745
297	18747
296	18749
295	18751
294	18753
293	18755
292	18757
292	18759
292	18761
291	18763
291	18765
290	18767
290	18769
290	18771
289	18774
288	18776
288	18778
288	18780
288	18782
288	18784
288	18786
287	18788
287	18790
287	18792
287	18794
287	18796
287	18798
287	18800
287	18802
287	18804
287	18806
287	18808
287	18810
287	18812
287	18814
287	18816
288	18818
288	18820
287	18822
288	18824
287	18826
288	18828
288	18830
288	18832
289	18834
289	18836
289	18838
289	18840
289	18842
289	18844
290	18846
290	18848
290	18850
291	18852
290	18854
291	18856
291	18859
291	18861
291	18863
292	18865
292	18867
292	18869
292	18871
293	18873
293	18875
293	18877
293	18879
294	18881
294	18883
294	18885
294	18887
294	18889
295	18891
295	18893
295	18895
296	18897
296	18899
296	18902
296	18904
297	18906
297	18908
297	18910
297	18912
297	18914
298	18916
298	18918
298	18920
298	18922
298	18924
298	18926
298	18928
299	18930
299	18932
300	18934
300	18936
300	18938
300	18940
300	18942
300	18944
300	18946
301	18948
301	18950
302	18952
302	18954
302	18956
302	18958
302	18960
302	18962
303	18964
303	18966
303	18968
303	18970
302	18972
303	18974
303	18976
303	18978
303	18980
303	18982
303	18984
303	18987
302	18989
302	18991
302	18993
301	18995
301	18997
301	18999
300	19001
300	19003
300	19005
300	19007
299	19009
299	19011
299	19013
299	19015
298	19017
299	19019
298	19021
298	19023
298	19025
298	19027
298	19030
298	19032
298	19034
298	19036
297	19038
297	19040
297	19042
297	19044
297	19046
297	19048
297	19050
297	19052
297	19054
297	19056
296	19058
296	19060
297	19062
297	19064
297	19066
297	19068
296	19070
296	19072
296	19074
296	19076
296	19078
296	19080
296	19082
296	19084
296	19086
296	19088
296	19090
296	19092
296	19094
296	19096
296	19098
296	19100
296	19102
296	19104
295	19106
295	19108
295	19110
295	19112
296	19115
295	19117
295	19119
295	19121
295	19123
295	19125
295	19127
295	19129
295	19131
295	19133
295	19135
295	19137
295	19139
295	19141
295	19143
294	19145
295	19147
295	19149
295	19151
295	19153
295	19155
294	19158
294	19160
294	19162
294	19164
295	19166
294	19168
295	19170
294	19172
294	19174
294	19176
294	19178
294	19180
294	19182
295	19184
295	19186
295	19188
296	19190
296	19192
297	19194
297	19196
298	19198
298	19200
299	19202
299	19204
299	19206
299	19208
300	19210
300	19212
301	19214
301	19216
302	19218
302	19220
302	19222
303	19224
303	19226
303	19228
303	19230
304	19232
304	19234
304	19236
304	19238
304	19240
304	19243
304	19245
304	19247
304	19249
304	19251
303	19253
303	19255
302	19257
301	19259
301	19261
301	19263
301	19265
300	19267
299	19269
299	19271
298	19273
297	19275
297	19277
296	19279
295	19281
295	19283
295	19286
294	19288
293	19290
293	19292
292	19294
292	19296
292	19298
291	19300
291	19302
291	19304
290	19306
290	19308
289	19310
289	19312
289	19314
289	19316
288	19318
288	19320
288	19322
288	19324
288	19326
287	19328
288	19330
287	19332
288	19334
287	19336
286	19338
286	19340
285	19342
284	19344
283	19346
282	19348
282	19350
282	19352
282	19354
283	19356
285	19358
287	19360
290	19362
293	19364
297	19366
300	19368
304	19371
307	19373
310	19375
311	19377
311	19379
310	19381
308	19383
306	19385
303	19387
300	19389
297	19391
296	19393
294	19395
294	19397
293	19399
293	19401
292	19403
291	19405
291	19407
290	19409
290	19411
290	19414
290	19416
290	19418
290	19420
290	19422
289	19424
289	19426
289	19428
289	19430
289	19432
289	19434
289	19436
289	19438
289	19440
288	19442
289	19444
289	19446
289	19448
289	19450
289	19452
289	19454
289	19456
289	19458
289	19460
289	19462
289	19464
290	19466
289	19468
290	19470
290	19472
290	19474
290	19476
290	19478
291	19480
291	19482
291	19484
291	19486
292	19488
292	19490
292	19492
292	19494
292	19496
293	19499
293	19501
293	19503
293	19505
293	19507
293	19509
294	19511
294	19513
294	19515
295	19517
295	19519
295	19521
295	19523
295	19525
295	19527
296	19529
296	19531
296	19533
297	19535
297	19537
297	19539
297	19542
298	19544
298	19546
298	19548
299	19550
299	19552
299	19554
300	19556
300	19558
300	19560
300	19562
300	19564
301	19566
301	19568
301	19570
301	19572
301	19574
301	19576
301	19578
302	19580
302	19582
302	19584
303	19586
303	19588
303	19590
303	19592
303	19594
303	19596
304	19598
304	19600
304	19602
304	19604
304	19606
305	19608
305	19610
305	19612
305	19614
305	19616
305	19618
305	19620
305	19622
304	19624
304	19627
304	19629
304	19631
304	19633
303	19635
303	19637
303	19639
303	19641
302	19643
302	19645
301	19647
301	19649
301	19651
301	19653
300	19655
300	19657
299	19659
299	19661
299	19663
299	19665
298	19667
299	19670
298	19672
298	19674
298	19676
297	19678
297	19680
297	19682
297	19684
297	19686
297	19688
296	19690
297	19692
296	19694
296	19696
296	19698
296	19700
296	19702
296	19704
296	19706
295	19708
295	19710
295	19712
295	19714
296	19716
295	19718
295	19720
295	19722
295	19724
295	19726
295	19728
295	19730
295	19732
295	19734
294	19736
295	19738
294	19740
294	19742
294	19744
294	19746
295	19748
294	19750
294	19752
294	19755
294	19757
294	19759
294	19761
294	19763
294	19765
294	19767
294	19769
294	19771
294	19773
294	19775
294	19777
293	19779
294	19781
294	19783
294	19785
294	19787
294	19789
294	19791
293	19793
293	19795
294	19798
294	19800
294	19802
295	19804
295	19806
295	19808
295	19810
296	19812
297	19814
297	19816
298	19818
298	19820
298	19822
298	19824
299	19826
299	19828
300	19830
300	19832
301	19834
301	19836
301	19838
302	19840
302	19842
303	19844
303	19846
304	19848
304	19850
304	19852
304	19854
305	19856
305	19858
304	19860
305	19862
305	19864
305	19866
305	19868
305	19870
304	19872
304	19874
303	19876
303	19878
302	19880
302	19883
302	19885
301	19887
300	19889
300	19891
299	19893
298	19895
298	19897
297	19899
297	19901
296	19903
296	19905
295	19907
294	19909
294	19911
293	19913
293	19915
293	19917
293	19919
292	19921
291	19923
291	19926
291	19928
291	19930
290	19932
291	19934
290	19936
289	19938
289	19940
289	19942
289	19944
289	19946
288	19948
289	19950
288	19952
288	19954
288	19956
287	19958
287	19960
286	19962
285	19964
285	19966
284	19968
283	19970
283	19972
283	19974
283	19976
285	19978
287	19980
289	19982
292	19984
295	19986
298	19988
302	19990
305	19992
308	19994
310	19996
311	19998
312	20000
311	20002
309	20004
306	20006
304	20008
300	20011
298	20013
296	20015
294	20017
293	20019
292	20021
291	20023
291	20025
290	20027
290	20029
290	20031
290	20033
290	20035
289	20037
289	20039
289	20041
288	20043
289	20045
289	20047
289	20049
289	20051
289	20054
289	20056
289	20058
288	20060
289	20062
289	20064
289	20066
289	20068
289	20070
289	20072
289	20074
289	20076
290	20078
290	20080
290	20082
290	20084
290	20086
291	20088
291	20090
291	20092
291	20094
291	20096
291	20098
291	20100
292	20102
292	20104
292	20106
292	20108
292	20110
292	20112
293	20114
293	20116
293	20118
294	20120
294	20122
294	20124
294	20126
294	20128
294	20130
295	20132
295	20134
295	20136
295	20139
295	20141
295	20143
296	20145
296	20147
297	20149
297	20151
297	20153
297	20155
297	20157
298	20159
297	20161
298	20163
298	20165
298	20167
299	20169
299	20171
299	20173
299	20175
299	20177
300	20179
300	20182
300	20184
301	20186
301	20188
301	20190
301	20192
301	20194
302	20196
302	20198
302	20200
303	20202
303	20204
302	20206
303	20208
303	20210
303	20212
303	20214
304	20216
304	20218
304	20220
304	20222
304	20224
304	20226
304	20228
304	20230
305	20232
305	20234
305	20236
305	20238
304	20240
304	20242
304	20244
304	20246
304	20248
304	20250
304	20252
304	20254
303	20256
303	20258
303	20260
302	20262
303	20264
303	20267
302	20269
301	20271
301	20273
301	20275
301	20277
300	20279
300	20281
300	20283
300	20285
300	20287
299	20289
299	20291
299	20293
299	20295
299	20297
299	20299
298	20301
298	20303
298	20305
298	20307
298	20310
298	20312
297	20314
298	20316
298	20318
298	20320
297	20322
297	20324
297	20326
297	20328
297	20330
297	20332
297	20334
297	20336
297	20338
297	20340
297	20342
297	20344
297	20346
297	20348
297	20350
297	20352
297	20354
297	20356
296	20358
296	20360
296	20362
296	20364
296	20366
297	20368
296	20370
296	20372
296	20374
296	20376
296	20378
296	20380
296	20382
297	20384
296	20386
297	20388
296	20390
296	20392
297	20395
297	20397
298	20399
298	20401
298	20403
299	20405
299	20407
300	20409
300	20411
301	20413
301	20415
302	20417
302	20419
303	20421
303	20423
303	20425
304	20427
304	20429
305	20431
306	20433
306	20435
306	20438
307	20440
307	20442
307	20444
307	20446
307	20448
308	20450
308	20452
308	20454
308	20456
308	20458
308	20460
307	20462
307	20464
307	20466
306	20468
306	20470
305	20472
305	20474
304	20476
304	20478
304	20480
303	20482
303	20484
302	20486
301	20488
300	20490
300	20492
299	20494
299	20496
298	20498
298	20500
297	20502
297	20504
296	20506
295	20508
295	20510
295	20512
294	20514
294	20516
294	20518
293	20520
293	20523
292	20525
292	20527
292	20529
291	20531
291	20533
291	20535
291	20537
291	20539
290	20541
290	20543
290	20545
290	20547
289	20549
289	20551
288	20553
287	20555
286	20557
285	20559
285	20561
285	20563
285	20566
287	20568
288	20570
291	20572
293	20574
296	20576
299	20578
302	20580
305	20582
308	20584
310	20586
311	20588
311	20590
310	20592
309	20594
306	20596
304	20598
301	20600
298	20602
296	20604
294	20606
294	20608
293	20610
292	20612
291	20614
291	20616
290	20618
290	20620
290	20622
290	20624
289	20626
289	20628
289	20630
289	20632
289	20634
289	20636
288	20638
288	20640
288	20642
288	20644
289	20646
289	20648
289	20651
289	20653
289	20655
288	20657
289	20659
288	20661
289	20663
289	20665
289	20667
289	20669
289	20671
289	20673
289	20675
289	20677
290	20679
290	20681
290	20683
290	20685
290	20687
290	20689
291	20691
290	20694
291	20696
291	20698
291	20700
292	20702
292	20704
292	20706
292	20708
292	20710
292	20712
293	20714
293	20716
293	20718
293	20720
293	20722
294	20724
294	20726
294	20728
294	20730
295	20732
295	20734
295	20736
296	20738
295	20740
296	20742
296	20744
296	20746
296	20748
297	20750
297	20752
297	20754
297	20756
297	20758
298	20760
298	20762
298	20764
298	20766
299	20768
299	20770
299	20772
299	20774
299	20776
299	20779
300	20781
300	20783
300	20785
301	20787
301	20789
300	20791
301	20793
301	20795
301	20797
302	20799
302	20801
303	20803
302	20805
302	20807
303	20809
303	20811
303	20813
303	20815
303	20817
304	20819
304	20822
304	20824
304	20826
304	20828
304	20830
304	20832
304	20834
304	20836
304	20838
304	20840
303	20842
303	20844
303	20846
303	20848
302	20850
303	20852
302	20854
302	20856
301	20858
301	20860
301	20862
300	20864
301	20866
300	20868
300	20870
300	20872
299	20874
299	20876
298	20878
298	20880
298	20882
298	20884
298	20886
298	20888
297	20890
297	20892
297	20894
297	20896
297	20898
297	20900
297	20902
297	20904
296	20907
296	20909
296	20911
296	20913
296	20915
296	20917
296	20919
295	20921
296	20923
295	20925
296	20927
295	20929
296	20931
295	20933
295	20935
296	20937
295	20939
295	20941
295	20943
295	20945
295	20947
295	20950
295	20952
295	20954
296	20956
296	20958
296	20960
296	20962
297	20964
297	20966
298	20968
299	20970
299	20972
299	20974
300	20976
300	20978
300	20980
301	20982
302	20984
302	20986
302	20988
303	20990
303	20992
303	20994
304	20996
304	20998
305	21000
305	21002
306	21004
306	21006
305	21008
306	21010
306	21012
306	21014
306	21016
307	21018
306	21020
306	21022
306	21024
305	21026
305	21028
305	21030
304	21032
304	21035
303	21037
303	21039
302	21041
301	21043
301	21045
300	21047
300	21049
299	21051
298	21053
298	21055
297	21057
296	21059
296	21061
295	21063
295	21065
294	21067
294	21069
293	21071
293	21073
292	21075
292	21078
291	21080
291	21082
291	21084
290	21086
290	21088
289	21090
289	21092
288	21094
288	21096
288	21098
288	21100
288	21102
288	21104
287	21106
287	21108
287	21110
286	21112
286	21114
285	21116
284	21118
283	21120
282	21122
281	21124
280	21126
280	21128
280	21130
281	21132
283	21134
286	21136
288	21138
291	21140
294	21142
297	21144
301	21146
304	21148
306	21150
308	21152
307	21154
306	21156
304	21158
301	21160
299	21163
296	21165
294	21167
293	21169
291	21171
291	21173
290	21175
289	21177
289	21179
289	21181
289	21183
289	21185
288	21187
288	21189
288	21191
287	21193
288	21195
287	21197
287	21199
288	21201
288	21203
287	21206
287	21208
287	21210
287	21212
287	21214
287	21216
288	21218
288	21220
288	21222
288	21224
287	21226
287	21228
288	21230
288	21232
289	21234
289	21236
289	21238
289	21240
289	21242
289	21244
289	21246
289	21248
290	21250
290	21252
290	21254
290	21256
290	21258
290	21260
290	21262
291	21264
291	21266
291	21268
292	21270
292	21272
292	21274
292	21276
292	21278
293	21280
293	21282
294	21284
294	21286
294	21288
294	21291
294	21293
295	21295
295	21297
295	21299
296	21301
296	21303
296	21305
296	21307
297	21309
296	21311
297	21313
298	21315
298	21317
298	21319
298	21321
298	21323
299	21325
298	21327
299	21329
299	21331
300	21334
300	21336
300	21338
300	21340
301	21342
300	21344
301	21346
301	21348
301	21350
302	21352
301	21354
301	21356
302	21358
302	21360
302	21362
302	21364
302	21366
303	21368
303	21370
303	21372
303	21374
303	21376
303	21378
303	21380
303	21382
304	21384
304	21386
304	21388
304	21390
303	21392
304	21394
303	21396
303	21398
304	21400
303	21402
303	21404
303	21406
302	21408
302	21410
302	21412
302	21414
302	21416
301	21419
301	21421
301	21423
300	21425
300	21427
299	21429
299	21431
299	21433
299	21435
299	21437
299	21439
298	21441
298	21443
298	21445
297	21447
298	21449
297	21451
297	21453
297	21455
297	21457
297	21459
297	21462
297	21464
297	21466
297	21468
297	21470
297	21472
296	21474
296	21476
296	21478
296	21480
296	21482
296	21484
297	21486
297	21488
296	21490
296	21492
296	21494
296	21496
296	21498
296	21500
297	21502
297	21504
297	21506
296	21508
296	21510
296	21512
296	21514
296	21516
297	21518
297	21520
298	21522
298	21524
298	21526
299	21528
299	21530
300	21532
301	21534
301	21536
302	21538
302	21540
302	21542
303	21544
303	21547
304	21549
304	21551
305	21553
305	21555
305	21557
306	21559
306	21561
306	21563
307	21565
307	21567
307	21569
307	21571
307	21573
307	21575
307	21577
307	21579
307	21581
307	21583
307	21585
307	21587
306	21590
305	21592
305	21594
304	21596
304	21598
303	21600
303	21602
302	21604
301	21606
300	21608
300	21610
299	21612
298	21614
298	21616
297	21618
297	21620
296	21622
295	21624
294	21626
294	21628
293	21630
293	21632
293	21634
293	21636
292	21638
291	21640
291	21642
290	21644
290	21646
290	21648
290	21650
289	21652
289	21654
289	21656
288	21658
288	21660
288	21662
287	21664
288	21666
288	21668
287	21670
287	21672
286	21675
285	21677
284	21679
282	21681
282	21683
281	21685
280	21687
280	21689
280	21691
282	21693
284	21695
287	21697
290	21699
293	21701
297	21703
301	21705
304	21707
307	21709
308	21711
309	21713
308	21715
306	21718
304	21720
301	21722
298	21724
296	21726
295	21728
294	21730
293	21732
293	21734
292	21736
292	21738
292	21740
291	21742
290	21744
290	21746
290	21748
290	21750
290	21752
290	21754
289	21756
289	21758
289	21760
289	21762
289	21764
289	21766
289	21768
289	21770
289	21772
289	21774
288	21776
288	21778
288	21780
288	21782
288	21784
289	21786
288	21788
289	21790
288	21792
289	21794
289	21796
289	21798
289	21800
290	21803
289	21805
289	21807
290	21809
290	21811
290	21813
290	21815
290	21817
291	21819
291	21821
291	21823
291	21825
291	21827
291	21829
291	21831
292	21833
292	21835
292	21837
292	21839
293	21841
293	21843
293	21846
293	21848
294	21850
294	21852
294	21854
294	21856
294	21858
295	21860
295	21862
295	21864
295	21866
296	21868
296	21870
296	21872
296	21874
296	21876
296	21878
297	21880
297	21882
298	21884
298	21886
298	21888
298	21890
298	21892
298	21894
298	21896
299	21898
299	21900
299	21902
299	21904
300	21906
300	21908
300	21910
300	21912
301	21914
301	21916
301	21918
302	21920
302	21922
302	21924
302	21926
302	21928
302	21931
303	21933
303	21935
304	21937
303	21939
303	21941
304	21943
303	21945
304	21947
304	21949
304	21951
304	21953
304	21955
304	21957
304	21959
303	21961
303	21963
303	21965
303	21967
303	21969
303	21971
302	21974
302	21976
302	21978
302	21980
301	21982
301	21984
301	21986
301	21988
300	21990
300	21992
300	21994
300	21996
299	21998
299	22000
299	22002
298	22004
298	22006
298	22008
298	22010
298	22012
298	22014
298	22016
298	22018
298	22020
298	22022
297	22024
297	22026
297	22028
297	22030
297	22032
297	22034
297	22036
297	22038
297	22040
296	22042
297	22044
296	22046
296	22048
297	22050
297	22052
297	22054
296	22056
296	22059
296	22061
296	22063
296	22065
296	22067
296	22069
297	22071
296	22073
296	22075
296	22077
295	22079
295	22081
296	22083
296	22085
296	22087
296	22089
295	22091
296	22093
296	22095
297	22097
298	22099
298	22102
298	22104
299	22106
299	22108
299	22110
300	22112
300	22114
301	22116
301	22118
302	22120
302	22122
302	22124
303	22126
303	22128
303	22130
304	22132
304	22134
305	22136
305	22138
305	22140
305	22142
305	22144
306	22146
306	22148
306	22150
306	22152
306	22154
306	22156
305	22158
305	22160
305	22162
304	22164
305	22166
304	22168
304	22170
303	22172
303	22174
302	22176
301	22178
301	22180
300	22182
300	22184
299	22187
299	22189
298	22191
297	22193
297	22195
296	22197
296	22199
296	22201
295	22203
295	22205
294	22207
293	22209
293	22211
292	22213
292	22215
292	22217
291	22219
291	22221
291	22223
290	22225
290	22227
290	22230
289	22232
289	22234
289	22236
289	22238
288	22240
288	22242
287	22244
287	22246
286	22248
286	22250
284	22252
283	22254
282	22256
280	22258
280	22260
280	22262
280	22264
281	22266
283	22268
286	22270
287	22272
290	22274
294	22276
298	22278
302	22280
306	22282
309	22284
311	22286
311	22288
310	22290
308	22292
305	22294
303	22296
301	22298
298	22300
297	22302
296	22304
295	22306
294	22308
294	22310
293	22312
293	22315
292	22317
293	22319
292	22321
291	22323
291	22325
290	22327
290	22329
290	22331
290	22333
290	22335
289	22337
289	22339
289	22341
288	22343
289	22345
288	22347
288	22349
288	22351
288	22353
288	22355
288	22358
288	22360
288	22362
288	22364
288	22366
288	22368
288	22370
288	22372
288	22374
288	22376
288	22378
288	22380
288	22382
289	22384
289	22386
289	22388
289	22390
289	22392
289	22394
289	22396
290	22398
290	22400
290	22402
291	22404
290	22406
291	22408
291	22410
291	22412
291	22414
292	22416
292	22418
292	22420
292	22422
292	22424
292	22426
292	22428
293	22430
293	22432
293	22434
294	22436
293	22438
294	22440
294	22443
294	22445
294	22447
295	22449
295	22451
296	22453
295	22455
295	22457
296	22459
296	22461
296	22463
296	22465
296	22467
297	22469
297	22471
297	22473
297	22475
297	22477
297	22479
297	22481
298	22483
299	22486
298	22488
299	22490
299	22492
299	22494
299	22496
300	22498
300	22500
300	22502
301	22504
301	22506
301	22508
301	22510
301	22512
301	22514
302	22516
302	22518
302	22520
302	22522
302	22524
302	22526
302	22528
302	22530
302	22532
302	22534
302	22536
302	22538
302	22540
301	22542
301	22544
301	22546
301	22548
301	22550
300	22552
300	22554
300	22556
299	22558
299	22560
299	22562
299	22564
298	22566
298	22568
298	22571
297	22573
297	22575
297	22577
297	22579
297	22581
297	22583
297	22585
297	22587
297	22589
297	22591
296	22593
296	22595
296	22597
296	22599
296	22601
297	22603
296	22605
296	22607
297	22609
296	22611
296	22614
296	22616
296	22618
297	22620
296	22622
296	22624
296	22626
296	22628
296	22630
296	22632
296	22634
296	22636
296	22638
296	22640
296	22642
296	22644
296	22646
296	22648
296	22650
297	22652
296	22654
296	22656
296	22658
296	22660
296	22662
296	22664
296	22666
296	22668
296	22670
296	22672
296	22674
296	22676
296	22678
296	22680
296	22682
296	22684
297	22686
297	22688
297	22690
298	22692
299	22694
299	22696
299	22699
300	22701
301	22703
301	22705
301	22707
302	22709
302	22711
302	22713
303	22715
304	22717
304	22719
304	22721
305	22723
305	22725
305	22727
306	22729
306	22731
306	22733
306	22735
307	22737
307	22739
306	22742
306	22744
306	22746
306	22748
307	22750
306	22752
306	22754
306	22756
305	22758
304	22760
303	22762
303	22764
303	22766
302	22768
301	22770
301	22772
300	22774
299	22776
298	22778
298	22780
297	22782
297	22784
296	22786
296	22788
295	22790
294	22792
294	22794
293	22796
292	22798
292	22800
292	22802
291	22804
291	22806
290	22808
289	22810
289	22812
289	22814
288	22816
289	22818
288	22820
288	22822
287	22824
287	22827
287	22829
287	22831
286	22833
287	22835
286	22837
286	22839
285	22841
284	22843
283	22845
282	22847
281	22849
281	22851
280	22853
280	22855
280	22857
282	22859
284	22861
287	22863
290	22865
294	22867
298	22870
301	22872
305	22874
308	22876
310	22878
310	22880
309	22882
308	22884
306	22886
303	22888
300	22890
297	22892
296	22894
294	22896
293	22898
293	22900
292	22902
291	22904
291	22906
290	22908
290	22910
290	22912
289	22914
289	22916
290	22918
290	22920
289	22922
289	22924
289	22926
289	22928
289	22930
289	22932
288	22934
289	22936
288	22938
288	22940
288	22942
288	22944
288	22946
288	22948
288	22950
289	22952
289	22955
288	22957
289	22959
289	22961
289	22963
289	22965
289	22967
290	22969
290	22971
290	22973
290	22975
290	22977
290	22979
290	22981
290	22983
291	22985
291	22987
291	22989
291	22991
291	22993
291	22995
292	22998
292	23000
292	23002
292	23004
292	23006
292	23008
292	23010
293	23012
293	23014
293	23016
294	23018
294	23020
294	23022
294	23024
294	23026
294	23028
295	23030
295	23032
296	23034
296	23036
296	23038
296	23040
296	23042
296	23044
296	23046
297	23048
297	23050
297	23052
298	23054
298	23056
298	23058
298	23060
298	23062
298	23064
299	23066
299	23068
299	23070
299	23072
299	23074
299	23076
299	23078
300	23080
300	23083
300	23085
300	23087
301	23089
301	23091
301	23093
301	23095
302	23097
302	23099
302	23101
303	23103
303	23105
303	23107
303	23109
303	23111
303	23113
303	23115
303	23117
303	23119
303	23121
302	23123
303	23126
302	23128
302	23130
302	23132
302	23134
302	23136
301	23138
301	23140
301	23142
300	23144
300	23146
300	23148
299	23150
299	23152
299	23154
298	23156
298	23158
298	23160
297	23162
298	23164
297	23166
