⸮⸮⸮⸮⸮⸮⸮⸮⸮⸮⸮⸮⸮⸮⸮⸮⸮⸮⸮⸮⸮⸮⸮⸮⸮⸮⸮⸮⸮⸮⸮⸮⸮313	2
313	4
313	6
313	8
314	10
314	12
314	14
314	16
314	18
314	20
314	22
313	24
313	26
313	28
313	30
312	32
312	34
312	36
311	38
311	40
311	43
310	45
309	47
309	49
308	51
308	53
308	55
308	57
307	59
306	61
306	63
306	65
305	67
304	69
304	71
304	73
304	75
303	77
303	79
302	81
302	83
301	86
301	88
301	90
301	92
300	94
300	96
300	98
300	100
299	102
299	104
298	106
298	108
298	110
298	112
298	114
298	116
298	118
297	120
297	122
297	124
297	126
297	128
297	130
297	132
297	134
296	136
297	138
297	140
296	142
297	144
296	146
296	148
297	150
296	152
296	154
296	156
296	158
297	160
296	162
296	164
297	166
296	168
296	171
297	173
297	175
297	177
297	179
297	181
297	183
297	185
297	187
297	189
297	191
297	193
297	195
297	197
297	199
297	201
297	203
297	205
297	207
297	209
297	211
297	214
297	216
297	218
297	220
297	222
297	224
297	226
297	228
297	230
297	232
297	234
297	236
297	238
297	240
297	242
297	244
297	246
297	248
297	250
297	252
297	254
297	256
297	258
297	260
297	262
297	264
297	266
297	268
297	270
297	272
297	274
297	276
297	278
297	280
297	282
297	284
297	286
297	288
297	290
297	292
297	294
297	296
297	299
297	301
297	303
297	305
297	307
297	309
297	311
297	313
297	315
297	317
297	319
297	321
297	323
297	325
297	327
297	329
297	331
297	333
298	335
298	337
298	339
298	342
299	344
299	346
299	348
299	350
300	352
300	354
301	356
301	358
302	360
302	362
302	364
303	366
303	368
303	370
303	372
303	374
303	376
303	378
303	380
303	382
303	384
303	386
303	388
303	390
304	392
303	394
303	396
303	398
303	400
303	402
302	404
302	406
302	408
301	410
301	412
300	414
300	416
300	418
300	420
300	422
299	424
299	427
299	429
298	431
298	433
298	435
297	437
297	439
297	441
297	443
297	445
297	447
296	449
296	451
296	453
296	455
296	457
295	459
296	461
296	463
295	465
296	467
296	470
295	472
296	474
295	476
295	478
295	480
294	482
293	484
293	486
292	488
291	490
291	492
290	494
290	496
291	498
292	500
293	502
296	504
299	506
302	508
305	510
306	512
310	514
313	516
316	518
318	520
319	522
320	524
320	526
319	528
318	530
316	532
313	534
312	536
309	538
308	540
307	542
305	544
304	546
304	548
303	550
302	552
302	555
301	557
301	559
300	561
299	563
299	565
299	567
299	569
298	571
298	573
298	575
297	577
297	579
297	581
296	583
296	585
296	587
296	589
296	591
295	593
295	595
295	598
295	600
295	602
295	604
295	606
295	608
295	610
294	612
295	614
294	616
295	618
294	620
294	622
294	624
294	626
295	628
295	630
294	632
294	634
295	636
295	638
295	640
295	642
295	644
295	646
295	648
295	650
295	652
295	654
295	656
295	658
295	660
295	662
295	664
295	666
295	668
296	670
296	672
296	674
296	676
296	678
296	680
297	683
297	685
297	687
297	689
297	691
297	693
297	695
297	697
298	699
298	701
298	703
298	705
298	707
299	709
299	711
299	713
300	715
300	717
300	719
301	721
301	723
301	726
302	728
302	730
302	732
302	734
303	736
303	738
304	740
304	742
305	744
305	746
305	748
306	750
306	752
307	754
307	756
307	758
308	760
307	762
308	764
308	766
309	768
309	770
309	772
309	774
309	776
309	778
310	780
309	782
310	784
309	786
309	788
309	790
309	792
308	794
308	796
308	798
308	800
307	802
307	804
306	806
306	808
306	811
305	813
304	815
304	817
303	819
303	821
303	823
302	825
301	827
301	829
300	831
300	833
299	835
299	837
298	839
298	841
297	843
297	845
296	847
296	849
296	851
295	854
296	856
295	858
294	860
294	862
294	864
293	866
293	868
293	870
293	872
292	874
292	876
292	878
292	880
292	882
291	884
291	886
291	888
291	890
290	892
291	894
291	896
291	898
291	900
291	902
291	904
290	906
291	908
290	910
290	912
291	914
290	916
290	918
290	920
290	922
290	924
290	926
290	928
290	930
290	932
290	934
290	936
290	939
291	941
291	943
291	945
291	947
291	949
291	951
291	953
291	955
291	957
291	959
291	961
291	963
291	965
291	967
291	969
291	971
292	973
291	975
291	977
291	979
291	982
292	984
292	986
292	988
292	990
292	992
292	994
292	996
292	998
292	1000
292	1002
292	1004
293	1006
292	1008
292	1010
293	1012
292	1014
292	1016
293	1018
292	1020
292	1022
292	1024
293	1026
293	1028
292	1030
293	1032
292	1034
293	1036
293	1038
293	1040
293	1042
293	1044
293	1046
293	1048
293	1050
293	1052
293	1054
293	1056
293	1058
293	1060
293	1062
293	1064
293	1067
293	1069
293	1071
293	1073
293	1075
293	1077
293	1079
293	1081
293	1083
293	1085
293	1087
293	1089
293	1091
293	1093
293	1095
293	1097
293	1099
293	1101
293	1103
293	1105
293	1107
293	1110
294	1112
294	1114
294	1116
294	1118
295	1120
295	1122
295	1124
296	1126
296	1128
297	1130
297	1132
297	1134
298	1136
298	1138
298	1140
299	1142
299	1144
300	1146
299	1148
299	1150
299	1152
299	1154
300	1156
299	1158
300	1160
300	1162
299	1164
300	1166
300	1168
299	1170
300	1172
299	1174
299	1176
299	1178
299	1180
299	1182
298	1184
298	1186
298	1188
297	1190
297	1192
296	1195
296	1197
296	1199
296	1201
296	1203
296	1205
295	1207
295	1209
295	1211
295	1213
294	1215
294	1217
294	1219
294	1221
294	1223
293	1225
293	1227
293	1229
293	1231
293	1233
293	1235
292	1238
292	1240
292	1242
292	1244
292	1246
292	1248
292	1250
292	1252
292	1254
291	1256
291	1258
290	1260
289	1262
288	1264
288	1266
288	1268
288	1270
288	1272
290	1274
292	1276
294	1278
296	1280
298	1282
302	1284
305	1286
308	1288
311	1290
313	1292
315	1294
316	1296
316	1298
316	1300
315	1302
313	1304
312	1306
309	1308
307	1310
305	1312
304	1314
302	1316
301	1318
300	1320
299	1323
298	1325
297	1327
297	1329
297	1331
296	1333
296	1335
296	1337
296	1339
295	1341
295	1343
295	1345
294	1347
293	1349
294	1351
294	1353
293	1355
293	1357
293	1359
293	1361
293	1363
292	1366
292	1368
292	1370
292	1372
292	1374
292	1376
292	1378
292	1380
292	1382
292	1384
292	1386
292	1388
292	1390
292	1392
292	1394
292	1396
292	1398
292	1400
292	1402
292	1404
291	1406
292	1408
292	1410
292	1412
292	1414
292	1416
292	1418
292	1420
292	1422
292	1424
292	1426
292	1428
293	1430
292	1432
292	1434
293	1436
293	1438
293	1440
293	1442
293	1444
293	1446
293	1448
293	1451
294	1453
294	1455
294	1457
294	1459
294	1461
295	1463
294	1465
294	1467
295	1469
295	1471
295	1473
295	1475
295	1477
296	1479
296	1481
297	1483
297	1485
297	1487
297	1489
298	1491
298	1494
298	1496
299	1498
299	1500
299	1502
300	1504
300	1506
301	1508
301	1510
302	1512
302	1514
302	1516
303	1518
303	1520
303	1522
304	1524
304	1526
305	1528
305	1530
305	1532
306	1534
306	1536
306	1538
306	1540
306	1542
307	1544
307	1546
307	1548
307	1550
307	1552
308	1554
308	1556
307	1558
307	1560
306	1562
307	1564
307	1566
307	1568
306	1570
306	1572
305	1574
305	1576
304	1579
304	1581
304	1583
303	1585
303	1587
302	1589
301	1591
301	1593
300	1595
300	1597
299	1599
299	1601
299	1603
298	1605
297	1607
297	1609
296	1611
296	1613
296	1615
295	1617
295	1619
294	1622
294	1624
294	1626
293	1628
293	1630
292	1632
292	1634
292	1636
291	1638
291	1640
291	1642
291	1644
291	1646
290	1648
290	1650
290	1652
289	1654
289	1656
289	1658
289	1660
289	1662
289	1664
289	1666
289	1668
288	1670
288	1672
288	1674
288	1676
288	1678
288	1680
288	1682
288	1684
288	1686
288	1688
288	1690
288	1692
288	1694
288	1696
288	1698
288	1700
288	1702
288	1704
288	1707
288	1709
288	1711
288	1713
288	1715
288	1717
288	1719
289	1721
288	1723
288	1725
289	1727
289	1729
289	1731
289	1733
289	1735
289	1737
289	1739
289	1741
289	1743
289	1745
289	1747
289	1750
289	1752
290	1754
289	1756
289	1758
289	1760
289	1762
289	1764
290	1766
289	1768
290	1770
289	1772
290	1774
290	1776
290	1778
290	1780
290	1782
290	1784
290	1786
290	1788
290	1790
290	1792
290	1794
290	1796
290	1798
290	1800
290	1802
290	1804
290	1806
290	1808
290	1810
290	1812
290	1814
290	1816
290	1818
290	1820
290	1822
290	1824
290	1826
290	1828
290	1830
290	1832
290	1835
290	1837
290	1839
290	1841
290	1843
290	1845
290	1847
290	1849
290	1851
290	1853
290	1855
290	1857
290	1859
290	1861
290	1863
290	1865
290	1867
290	1869
290	1871
290	1873
290	1875
290	1878
290	1880
291	1882
290	1884
291	1886
290	1888
290	1890
290	1892
290	1894
290	1896
291	1898
291	1900
290	1902
291	1904
291	1906
291	1908
291	1910
290	1912
291	1914
291	1916
291	1918
291	1920
291	1922
291	1924
291	1926
292	1928
292	1930
292	1932
293	1934
293	1936
292	1938
293	1940
294	1942
294	1944
295	1946
295	1948
295	1950
296	1952
296	1954
296	1956
297	1958
296	1960
296	1963
296	1965
296	1967
297	1969
297	1971
296	1973
296	1975
296	1977
297	1979
297	1981
296	1983
297	1985
296	1987
297	1989
296	1991
296	1993
296	1995
295	1997
295	1999
295	2001
294	2003
294	2006
294	2008
294	2010
293	2012
293	2014
293	2016
292	2018
292	2020
292	2022
291	2024
291	2026
291	2028
291	2030
291	2032
291	2034
290	2036
290	2038
290	2040
290	2042
290	2044
290	2046
290	2048
289	2050
289	2052
290	2054
289	2056
289	2058
289	2060
289	2062
289	2064
289	2066
289	2068
288	2070
287	2072
286	2074
286	2076
285	2078
285	2080
284	2082
284	2084
285	2086
287	2088
288	2091
291	2093
294	2095
297	2097
300	2099
303	2101
307	2103
309	2105
311	2107
313	2109
313	2111
313	2113
313	2115
311	2117
310	2119
307	2121
305	2123
303	2125
301	2127
300	2129
299	2131
298	2134
297	2136
296	2138
296	2140
295	2142
295	2144
294	2146
294	2148
293	2150
293	2152
293	2154
292	2156
292	2158
292	2160
291	2162
291	2164
290	2166
291	2168
290	2170
290	2172
290	2174
290	2176
290	2178
290	2180
290	2182
290	2184
290	2186
289	2188
289	2190
289	2192
289	2194
289	2196
289	2198
289	2200
289	2202
289	2204
289	2206
289	2208
289	2210
289	2212
289	2214
289	2216
289	2219
289	2221
289	2223
289	2225
289	2227
289	2229
289	2231
289	2233
289	2235
289	2237
289	2239
289	2241
289	2243
289	2245
290	2247
290	2249
290	2251
290	2253
290	2255
289	2257
291	2259
290	2262
290	2264
290	2266
291	2268
291	2270
291	2272
291	2274
292	2276
291	2278
291	2280
292	2282
292	2284
292	2286
292	2288
292	2290
293	2292
292	2294
293	2296
293	2298
294	2300
294	2302
294	2304
295	2306
295	2308
295	2310
295	2312
296	2314
296	2316
297	2318
297	2320
297	2322
297	2324
298	2326
299	2328
299	2330
299	2332
300	2334
300	2336
300	2338
301	2340
301	2342
302	2344
302	2347
302	2349
303	2351
303	2353
304	2355
304	2357
304	2359
304	2361
304	2363
304	2365
304	2367
305	2369
305	2371
305	2373
304	2375
305	2377
304	2379
304	2381
304	2383
304	2385
304	2387
303	2390
302	2392
302	2394
302	2396
302	2398
301	2400
301	2402
300	2404
300	2406
299	2408
299	2410
298	2412
298	2414
297	2416
297	2418
296	2420
296	2422
295	2424
295	2426
294	2428
294	2430
294	2432
293	2434
293	2436
292	2438
292	2440
292	2442
291	2444
291	2446
291	2448
290	2450
290	2452
290	2454
290	2456
289	2458
289	2460
289	2462
289	2464
289	2466
289	2468
288	2470
288	2472
288	2475
288	2477
288	2479
288	2481
287	2483
288	2485
288	2487
287	2489
288	2491
287	2493
287	2495
287	2497
287	2499
287	2501
287	2503
287	2505
287	2507
287	2509
287	2511
287	2513
287	2515
287	2518
287	2520
287	2522
287	2524
287	2526
287	2528
287	2530
287	2532
287	2534
288	2536
287	2538
287	2540
287	2542
288	2544
288	2546
288	2548
288	2550
288	2552
288	2554
288	2556
288	2558
288	2560
288	2562
288	2564
288	2566
288	2568
288	2570
288	2572
288	2574
288	2576
288	2578
288	2580
288	2582
288	2584
288	2586
288	2588
288	2590
288	2592
288	2594
288	2596
288	2598
288	2600
288	2603
288	2605
288	2607
288	2609
288	2611
289	2613
289	2615
288	2617
289	2619
289	2621
288	2623
288	2625
288	2627
288	2629
289	2631
289	2633
289	2635
288	2637
289	2639
289	2641
289	2643
288	2646
289	2648
289	2650
289	2652
289	2654
288	2656
289	2658
289	2660
289	2662
289	2664
289	2666
289	2668
289	2670
289	2672
289	2674
289	2676
289	2678
289	2680
289	2682
289	2684
289	2686
289	2688
289	2690
289	2692
289	2694
289	2696
289	2698
289	2700
289	2702
289	2704
289	2706
289	2708
290	2710
289	2712
289	2714
289	2716
289	2718
289	2720
290	2722
290	2724
290	2726
289	2728
289	2731
290	2733
290	2735
290	2737
289	2739
289	2741
290	2743
290	2745
290	2747
290	2749
290	2751
290	2753
290	2755
290	2757
290	2759
290	2761
290	2763
290	2765
290	2767
290	2769
290	2771
290	2774
290	2776
290	2778
291	2780
291	2782
291	2784
292	2786
291	2788
291	2790
292	2792
292	2794
293	2796
293	2798
294	2800
294	2802
295	2804
295	2806
296	2808
295	2810
296	2812
296	2814
296	2816
296	2818
296	2820
296	2822
296	2824
296	2826
297	2828
297	2830
297	2832
297	2834
296	2836
297	2838
296	2840
296	2842
297	2844
296	2846
296	2848
296	2850
295	2852
295	2854
295	2856
294	2859
294	2861
294	2863
294	2865
293	2867
293	2869
293	2871
293	2873
292	2875
292	2877
292	2879
291	2881
292	2883
291	2885
291	2887
291	2889
291	2891
290	2893
290	2895
290	2897
290	2899
290	2902
290	2904
290	2906
290	2908
290	2910
289	2912
289	2914
289	2916
289	2918
289	2920
289	2922
289	2924
288	2926
287	2928
286	2930
286	2932
285	2934
285	2936
284	2938
284	2940
284	2942
285	2944
286	2946
288	2948
290	2950
293	2952
296	2954
299	2956
303	2958
306	2960
309	2962
311	2964
313	2966
315	2968
314	2970
313	2972
312	2974
310	2976
308	2978
306	2980
304	2982
303	2984
301	2987
300	2989
299	2991
298	2993
297	2995
297	2997
296	2999
296	3001
295	3003
295	3005
294	3007
294	3009
294	3011
293	3013
292	3015
293	3017
292	3019
292	3021
291	3023
291	3025
291	3027
291	3030
291	3032
290	3034
290	3036
290	3038
290	3040
290	3042
290	3044
289	3046
289	3048
289	3050
289	3052
289	3054
289	3056
288	3058
289	3060
289	3062
288	3064
289	3066
288	3068
288	3070
288	3072
288	3074
288	3076
288	3078
289	3080
289	3082
289	3084
289	3086
289	3088
289	3090
289	3092
289	3094
289	3096
289	3098
289	3100
289	3102
289	3104
289	3106
289	3108
289	3110
289	3112
290	3115
290	3117
290	3119
290	3121
290	3123
290	3125
290	3127
291	3129
291	3131
291	3133
291	3135
291	3137
291	3139
292	3141
291	3143
292	3145
292	3147
292	3149
293	3151
293	3153
293	3155
294	3158
293	3160
294	3162
294	3164
294	3166
295	3168
295	3170
295	3172
296	3174
295	3176
296	3178
296	3180
297	3182
297	3184
298	3186
298	3188
298	3190
299	3192
299	3194
299	3196
300	3198
300	3200
300	3202
301	3204
301	3206
301	3208
302	3210
302	3212
302	3214
302	3216
303	3218
303	3220
303	3222
303	3224
303	3226
303	3228
303	3230
303	3232
303	3234
303	3236
303	3238
303	3240
303	3243
302	3245
302	3247
301	3249
301	3251
301	3253
300	3255
300	3257
300	3259
299	3261
298	3263
298	3265
297	3267
297	3269
296	3271
296	3273
295	3275
295	3277
295	3279
294	3281
294	3283
293	3286
293	3288
292	3290
292	3292
292	3294
291	3296
291	3298
291	3300
291	3302
290	3304
289	3306
290	3308
289	3310
289	3312
290	3314
289	3316
288	3318
288	3320
288	3322
288	3324
288	3326
288	3328
288	3330
288	3332
288	3334
287	3336
287	3338
287	3340
287	3342
287	3344
287	3346
287	3348
287	3350
286	3352
287	3354
286	3356
287	3358
286	3360
286	3362
286	3364
287	3366
286	3368
286	3371
286	3373
286	3375
287	3377
286	3379
286	3381
287	3383
286	3385
287	3387
287	3389
287	3391
287	3393
287	3395
287	3397
287	3399
287	3401
287	3403
287	3405
287	3407
287	3409
287	3411
287	3414
287	3416
288	3418
287	3420
287	3422
287	3424
288	3426
288	3428
287	3430
288	3432
288	3434
288	3436
288	3438
288	3440
288	3442
288	3444
288	3446
288	3448
288	3450
288	3452
288	3454
288	3456
288	3458
287	3460
288	3462
288	3464
288	3466
288	3468
288	3470
288	3472
288	3474
288	3476
289	3478
288	3480
288	3482
289	3484
289	3486
289	3488
289	3490
289	3492
289	3494
289	3496
288	3499
289	3501
289	3503
289	3505
289	3507
289	3509
289	3511
289	3513
289	3515
289	3517
289	3519
289	3521
289	3523
289	3525
289	3527
289	3529
289	3531
289	3533
289	3535
289	3537
289	3539
289	3542
289	3544
289	3546
289	3548
290	3550
289	3552
289	3554
290	3556
290	3558
289	3560
290	3562
289	3564
290	3566
289	3568
289	3570
290	3572
290	3574
289	3576
289	3578
290	3580
290	3582
289	3584
290	3586
290	3588
290	3590
290	3592
289	3594
290	3596
290	3598
290	3600
290	3602
290	3604
290	3606
290	3608
290	3610
290	3612
290	3614
290	3616
291	3618
291	3620
291	3622
291	3624
292	3627
292	3629
292	3631
292	3633
293	3635
293	3637
294	3639
294	3641
295	3643
295	3645
295	3647
295	3649
296	3651
296	3653
296	3655
296	3657
296	3659
296	3661
296	3663
296	3665
296	3667
296	3670
296	3672
296	3674
296	3676
296	3678
296	3680
296	3682
296	3684
295	3686
295	3688
295	3690
294	3692
294	3694
294	3696
293	3698
294	3700
293	3702
293	3704
293	3706
292	3708
291	3710
291	3712
291	3714
291	3716
290	3718
290	3720
290	3722
290	3724
290	3726
289	3728
289	3730
289	3732
289	3734
289	3736
289	3738
288	3740
289	3742
288	3744
288	3746
288	3748
288	3750
288	3752
288	3755
287	3757
288	3759
288	3761
287	3763
287	3765
286	3767
286	3769
285	3771
284	3773
284	3775
283	3777
283	3779
283	3781
284	3783
286	3785
288	3787
290	3789
294	3791
297	3793
300	3795
303	3798
306	3800
309	3802
311	3804
313	3806
314	3808
313	3810
312	3812
311	3814
308	3816
306	3818
304	3820
302	3822
301	3824
299	3826
298	3828
297	3830
295	3832
295	3834
294	3836
293	3838
293	3840
292	3842
293	3844
292	3846
292	3848
291	3850
291	3852
291	3854
290	3856
290	3858
290	3860
290	3862
289	3864
289	3866
288	3868
289	3870
288	3872
288	3874
288	3876
288	3878
288	3880
287	3883
287	3885
287	3887
287	3889
287	3891
287	3893
287	3895
287	3897
287	3899
287	3901
287	3903
287	3905
287	3907
288	3909
287	3911
287	3913
288	3915
287	3917
287	3919
288	3921
288	3923
287	3926
288	3928
288	3930
288	3932
288	3934
288	3936
288	3938
288	3940
288	3942
288	3944
288	3946
289	3948
289	3950
289	3952
289	3954
289	3956
289	3958
289	3960
290	3962
290	3964
290	3966
290	3968
290	3970
290	3972
291	3974
290	3976
291	3978
291	3980
291	3982
292	3984
292	3986
292	3988
293	3990
292	3992
293	3994
293	3996
293	3998
294	4000
294	4002
294	4004
295	4006
295	4008
295	4011
295	4013
295	4015
296	4017
296	4019
297	4021
297	4023
298	4025
298	4027
299	4029
299	4031
299	4033
300	4035
300	4037
301	4039
301	4041
301	4043
302	4045
302	4047
302	4049
303	4051
303	4054
303	4056
303	4058
303	4060
303	4062
303	4064
304	4066
303	4068
304	4070
304	4072
303	4074
303	4076
303	4078
303	4080
303	4082
302	4084
302	4086
302	4088
301	4090
301	4092
301	4094
300	4096
299	4098
299	4100
299	4102
298	4104
297	4106
297	4108
296	4110
296	4112
295	4114
295	4116
295	4118
294	4120
294	4122
293	4124
292	4126
292	4128
292	4130
291	4132
291	4134
291	4136
290	4139
290	4141
289	4143
290	4145
289	4147
289	4149
289	4151
288	4153
288	4155
288	4157
287	4159
287	4161
287	4163
286	4165
287	4167
286	4169
286	4171
286	4173
286	4175
286	4177
286	4179
286	4182
286	4184
285	4186
285	4188
285	4190
285	4192
285	4194
285	4196
285	4198
285	4200
285	4202
285	4204
285	4206
285	4208
285	4210
285	4212
285	4214
285	4216
285	4218
285	4220
285	4222
285	4224
285	4226
285	4228
285	4230
285	4232
285	4234
285	4236
286	4238
285	4240
286	4242
286	4244
286	4246
286	4248
286	4250
286	4252
286	4254
286	4256
287	4258
287	4260
286	4262
287	4264
287	4267
287	4269
287	4271
287	4273
287	4275
287	4277
287	4279
287	4281
287	4283
288	4285
287	4287
287	4289
288	4291
287	4293
287	4295
288	4297
287	4299
288	4301
287	4303
288	4305
288	4307
288	4310
288	4312
288	4314
288	4316
288	4318
288	4320
288	4322
288	4324
288	4326
288	4328
289	4330
288	4332
288	4334
288	4336
288	4338
288	4340
288	4342
288	4344
289	4346
288	4348
289	4350
288	4352
288	4354
288	4356
288	4358
288	4360
288	4362
288	4364
289	4366
288	4368
289	4370
288	4372
288	4374
288	4376
288	4378
288	4380
289	4382
288	4384
288	4386
289	4388
288	4390
289	4392
288	4395
289	4397
289	4399
288	4401
289	4403
288	4405
288	4407
289	4409
288	4411
288	4413
289	4415
289	4417
290	4419
290	4421
290	4423
291	4425
291	4427
291	4429
292	4431
292	4433
292	4435
292	4438
293	4440
294	4442
294	4444
294	4446
295	4448
295	4450
295	4452
295	4454
295	4456
295	4458
295	4460
295	4462
296	4464
296	4466
296	4468
296	4470
296	4472
296	4474
295	4476
296	4478
296	4480
296	4482
296	4484
295	4486
295	4488
294	4490
294	4492
294	4494
293	4496
293	4498
293	4500
293	4502
293	4504
292	4506
292	4508
292	4510
291	4512
291	4514
291	4516
291	4518
291	4520
290	4523
290	4525
290	4527
290	4529
290	4531
290	4533
289	4535
289	4537
290	4539
289	4541
289	4543
289	4545
288	4547
289	4549
288	4551
289	4553
289	4555
288	4557
288	4559
288	4561
287	4563
287	4566
286	4568
285	4570
285	4572
284	4574
283	4576
284	4578
284	4580
286	4582
288	4584
290	4586
293	4588
296	4590
299	4592
303	4594
306	4596
308	4598
310	4600
312	4602
313	4604
313	4606
313	4608
312	4610
310	4612
308	4614
306	4616
303	4618
302	4620
300	4622
299	4624
297	4626
296	4628
295	4630
295	4632
294	4634
293	4636
293	4638
293	4640
292	4642
292	4644
292	4646
291	4648
291	4651
290	4653
290	4655
290	4657
290	4659
289	4661
289	4663
289	4665
289	4667
289	4669
289	4671
289	4673
288	4675
289	4677
288	4679
288	4681
289	4683
289	4685
288	4687
288	4689
288	4691
288	4694
288	4696
288	4698
288	4700
288	4702
288	4704
288	4706
288	4708
288	4710
288	4712
288	4714
288	4716
288	4718
288	4720
289	4722
288	4724
289	4726
289	4728
288	4730
289	4732
289	4734
289	4736
289	4738
289	4740
290	4742
289	4744
290	4746
289	4748
289	4750
290	4752
290	4754
290	4756
290	4758
290	4760
290	4762
290	4764
290	4766
291	4768
291	4770
291	4772
291	4774
291	4776
292	4779
292	4781
292	4783
292	4785
292	4787
293	4789
293	4791
293	4793
293	4795
294	4797
294	4799
294	4801
295	4803
295	4805
296	4807
295	4809
296	4811
296	4813
296	4815
297	4817
297	4819
298	4822
299	4824
299	4826
299	4828
299	4830
300	4832
300	4834
300	4836
301	4838
302	4840
302	4842
302	4844
303	4846
303	4848
303	4850
303	4852
303	4854
304	4856
304	4858
304	4860
304	4862
304	4864
304	4866
304	4868
304	4870
304	4872
303	4874
304	4876
303	4878
303	4880
302	4882
302	4884
302	4886
301	4888
301	4890
300	4892
300	4894
299	4896
299	4898
298	4900
297	4902
297	4904
296	4907
296	4909
295	4911
295	4913
295	4915
294	4917
294	4919
293	4921
292	4923
292	4925
292	4927
291	4929
291	4931
291	4933
290	4935
290	4937
290	4939
289	4941
289	4943
289	4945
289	4947
288	4950
288	4952
288	4954
287	4956
287	4958
287	4960
287	4962
287	4964
286	4966
286	4968
286	4970
286	4972
286	4974
286	4976
286	4978
286	4980
285	4982
285	4984
286	4986
285	4988
285	4990
285	4992
285	4994
285	4996
285	4998
286	5000
285	5002
285	5004
286	5006
285	5008
285	5010
286	5012
286	5014
286	5016
286	5018
285	5020
286	5022
286	5024
286	5026
286	5028
286	5030
286	5032
286	5035
286	5037
286	5039
286	5041
286	5043
286	5045
286	5047
286	5049
286	5051
286	5053
287	5055
286	5057
287	5059
287	5061
287	5063
287	5065
287	5067
287	5069
287	5071
287	5073
287	5075
287	5078
287	5080
287	5082
287	5084
287	5086
287	5088
287	5090
287	5092
287	5094
287	5096
287	5098
287	5100
287	5102
288	5104
287	5106
287	5108
287	5110
287	5112
288	5114
287	5116
287	5118
287	5120
287	5122
288	5124
287	5126
287	5128
288	5130
288	5132
287	5134
288	5136
287	5138
288	5140
288	5142
288	5144
288	5146
288	5148
288	5150
288	5152
288	5154
288	5156
288	5158
288	5160
288	5163
288	5165
288	5167
288	5169
288	5171
288	5173
288	5175
288	5177
289	5179
288	5181
288	5183
288	5185
288	5187
289	5189
288	5191
288	5193
289	5195
288	5197
289	5199
289	5201
289	5203
289	5206
289	5208
289	5210
289	5212
289	5214
289	5216
289	5218
289	5220
289	5222
289	5224
289	5226
289	5228
290	5230
290	5232
290	5234
290	5236
291	5238
291	5240
291	5242
291	5244
292	5246
291	5248
292	5250
293	5252
293	5254
293	5256
294	5258
294	5260
295	5262
295	5264
295	5266
295	5268
296	5270
296	5272
296	5274
296	5276
296	5278
296	5280
296	5282
296	5284
296	5286
296	5288
296	5291
296	5293
296	5295
296	5297
295	5299
296	5301
295	5303
294	5305
295	5307
294	5309
294	5311
293	5313
293	5315
293	5317
293	5319
292	5321
293	5323
292	5325
292	5327
292	5329
291	5331
291	5334
291	5336
290	5338
291	5340
290	5342
290	5344
290	5346
290	5348
289	5350
289	5352
289	5354
289	5356
289	5358
289	5360
289	5362
288	5364
289	5366
288	5368
288	5370
288	5372
288	5374
288	5376
288	5378
287	5380
287	5382
286	5384
285	5386
284	5388
284	5390
283	5392
283	5394
284	5396
285	5398
286	5400
289	5402
292	5404
295	5406
298	5408
302	5410
305	5412
308	5414
311	5416
312	5419
313	5421
314	5423
313	5425
312	5427
310	5429
308	5431
306	5433
304	5435
302	5437
301	5439
299	5441
298	5443
298	5445
297	5447
296	5449
296	5451
295	5453
295	5455
294	5457
294	5459
293	5462
293	5464
292	5466
292	5468
291	5470
291	5472
291	5474
290	5476
290	5478
290	5480
290	5482
289	5484
289	5486
289	5488
289	5490
289	5492
288	5494
288	5496
288	5498
288	5500
288	5502
288	5504
288	5506
288	5508
287	5510
288	5512
287	5514
288	5516
287	5518
287	5520
287	5522
287	5524
287	5526
287	5528
287	5530
287	5532
287	5534
287	5536
288	5538
287	5540
287	5542
287	5544
288	5547
288	5549
287	5551
288	5553
288	5555
288	5557
288	5559
288	5561
288	5563
288	5565
288	5567
288	5569
288	5571
288	5573
289	5575
289	5577
289	5579
289	5581
289	5583
289	5585
290	5587
290	5590
290	5592
290	5594
290	5596
291	5598
291	5600
291	5602
291	5604
292	5606
292	5608
292	5610
293	5612
292	5614
293	5616
293	5618
294	5620
294	5622
294	5624
295	5626
295	5628
295	5630
295	5632
296	5634
296	5636
296	5638
297	5640
297	5642
297	5644
298	5646
298	5648
299	5650
299	5652
300	5654
300	5656
300	5658
301	5660
301	5662
301	5664
302	5666
302	5668
302	5670
302	5672
302	5675
302	5677
302	5679
302	5681
303	5683
303	5685
303	5687
303	5689
302	5691
302	5693
302	5695
302	5697
302	5699
301	5701
300	5703
301	5705
300	5707
300	5709
299	5711
299	5713
298	5715
298	5718
297	5720
297	5722
296	5724
296	5726
295	5728
295	5730
295	5732
294	5734
294	5736
294	5738
293	5740
293	5742
292	5744
292	5746
292	5748
291	5750
291	5752
291	5754
290	5756
290	5758
290	5760
290	5762
290	5764
289	5766
289	5768
289	5770
288	5772
288	5774
288	5776
288	5778
288	5780
288	5782
287	5784
287	5786
287	5788
287	5790
287	5792
287	5794
287	5796
287	5798
287	5800
287	5803
287	5805
287	5807
286	5809
287	5811
286	5813
286	5815
286	5817
286	5819
286	5821
286	5823
286	5825
286	5827
287	5829
286	5831
286	5833
287	5835
286	5837
287	5839
286	5841
287	5843
287	5846
287	5848
287	5850
287	5852
287	5854
287	5856
287	5858
287	5860
287	5862
287	5864
287	5866
287	5868
287	5870
287	5872
287	5874
287	5876
287	5878
287	5880
287	5882
287	5884
287	5886
287	5888
287	5890
287	5892
288	5894
287	5896
288	5898
287	5900
288	5902
288	5904
288	5906
287	5908
288	5910
288	5912
288	5914
288	5916
287	5918
288	5920
288	5922
288	5924
288	5926
288	5928
288	5931
288	5933
288	5935
288	5937
288	5939
288	5941
288	5943
288	5945
288	5947
288	5949
288	5951
288	5953
288	5955
288	5957
288	5959
288	5961
288	5963
288	5965
288	5967
288	5969
288	5971
289	5974
289	5976
289	5978
289	5980
289	5982
288	5984
288	5986
288	5988
289	5990
289	5992
288	5994
289	5996
289	5998
289	6000
289	6002
289	6004
288	6006
289	6008
289	6010
289	6012
289	6014
289	6016
289	6018
289	6020
289	6022
289	6024
289	6026
289	6028
289	6030
289	6032
289	6034
289	6036
289	6038
289	6040
289	6042
289	6044
289	6046
289	6048
289	6050
290	6052
290	6054
290	6056
291	6059
291	6061
291	6063
292	6065
292	6067
292	6069
293	6071
293	6073
294	6075
294	6077
295	6079
295	6081
295	6083
296	6085
296	6087
296	6089
296	6091
296	6093
296	6095
296	6097
296	6099
296	6102
296	6104
296	6106
296	6108
296	6110
296	6112
296	6114
295	6116
295	6118
295	6120
294	6122
294	6124
294	6126
293	6128
293	6130
293	6132
292	6134
292	6136
292	6138
292	6140
292	6142
291	6144
291	6146
291	6148
291	6150
290	6152
290	6154
290	6156
290	6158
289	6160
289	6162
289	6164
289	6166
289	6168
289	6170
289	6172
289	6174
289	6176
288	6178
288	6180
288	6182
288	6184
288	6187
288	6189
288	6191
287	6193
287	6195
287	6197
286	6199
285	6201
284	6203
284	6205
283	6207
282	6209
282	6211
283	6213
284	6215
285	6217
287	6219
290	6221
293	6223
296	6225
300	6227
303	6230
307	6232
309	6234
312	6236
313	6238
314	6240
314	6242
313	6244
311	6246
309	6248
306	6250
304	6252
302	6254
301	6256
299	6258
298	6260
297	6262
296	6264
295	6266
294	6268
294	6270
294	6272
294	6274
293	6276
293	6278
292	6280
292	6282
291	6284
291	6286
291	6288
291	6290
290	6292
290	6294
290	6296
289	6298
289	6300
289	6302
289	6304
289	6306
288	6308
288	6310
288	6312
288	6315
288	6317
288	6319
288	6321
288	6323
288	6325
288	6327
288	6329
288	6331
288	6333
288	6335
287	6337
288	6339
288	6341
287	6343
288	6345
287	6347
288	6349
288	6351
288	6353
288	6355
288	6358
288	6360
288	6362
288	6364
288	6366
288	6368
288	6370
289	6372
288	6374
288	6376
289	6378
289	6380
289	6382
289	6384
289	6386
290	6388
289	6390
290	6392
289	6394
289	6396
290	6398
290	6400
290	6402
290	6404
291	6406
291	6408
291	6410
291	6412
291	6414
291	6416
292	6418
292	6420
292	6422
293	6424
292	6426
293	6428
293	6430
293	6432
294	6434
294	6436
294	6438
295	6440
295	6443
295	6445
296	6447
296	6449
296	6451
297	6453
298	6455
297	6457
298	6459
298	6461
299	6463
299	6465
299	6467
300	6469
300	6471
301	6473
301	6475
301	6477
302	6479
302	6481
302	6483
303	6486
303	6488
303	6490
303	6492
303	6494
303	6496
303	6498
303	6500
304	6502
303	6504
303	6506
303	6508
303	6510
303	6512
302	6514
302	6516
302	6518
302	6520
301	6522
301	6524
300	6526
300	6528
300	6530
299	6532
299	6534
298	6536
298	6538
297	6540
297	6542
296	6544
296	6546
296	6548
295	6550
294	6552
294	6554
294	6556
293	6558
293	6560
292	6562
292	6564
291	6566
291	6568
291	6571
290	6573
290	6575
290	6577
289	6579
290	6581
289	6583
288	6585
289	6587
288	6589
288	6591
288	6593
287	6595
288	6597
287	6599
287	6601
287	6603
287	6605
287	6607
287	6609
286	6611
286	6614
286	6616
286	6618
287	6620
286	6622
286	6624
286	6626
286	6628
286	6630
286	6632
286	6634
286	6636
286	6638
286	6640
286	6642
286	6644
286	6646
286	6648
286	6650
286	6652
286	6654
286	6656
286	6658
286	6660
286	6662
286	6664
287	6666
286	6668
286	6670
287	6672
287	6674
287	6676
287	6678
286	6680
287	6682
287	6684
286	6686
287	6688
287	6690
287	6692
287	6694
287	6696
287	6699
287	6701
287	6703
287	6705
287	6707
288	6709
287	6711
287	6713
287	6715
287	6717
288	6719
288	6721
287	6723
288	6725
288	6727
288	6729
288	6731
288	6733
288	6735
288	6737
288	6739
288	6742
288	6744
288	6746
288	6748
288	6750
288	6752
288	6754
288	6756
288	6758
288	6760
288	6762
288	6764
288	6766
288	6768
289	6770
288	6772
288	6774
288	6776
288	6778
289	6780
289	6782
288	6784
288	6786
288	6788
288	6790
288	6792
288	6794
289	6796
288	6798
288	6800
289	6802
288	6804
289	6806
289	6808
288	6810
289	6812
289	6814
289	6816
289	6818
288	6820
289	6822
289	6824
289	6827
289	6829
289	6831
289	6833
289	6835
290	6837
290	6839
290	6841
290	6843
291	6845
291	6847
291	6849
292	6851
292	6853
293	6855
293	6857
293	6859
294	6861
294	6863
295	6865
295	6867
295	6870
295	6872
295	6874
295	6876
296	6878
295	6880
295	6882
295	6884
295	6886
296	6888
295	6890
295	6892
296	6894
295	6896
295	6898
295	6900
294	6902
294	6904
293	6906
293	6908
293	6910
293	6912
293	6914
292	6916
292	6918
292	6920
291	6922
291	6924
291	6926
291	6928
291	6930
290	6932
290	6934
289	6936
290	6938
289	6940
289	6942
289	6944
289	6946
289	6948
289	6950
289	6952
289	6955
288	6957
288	6959
288	6961
288	6963
288	6965
288	6967
288	6969
288	6971
288	6973
288	6975
287	6977
287	6979
286	6981
285	6983
285	6985
284	6987
284	6989
283	6991
283	6993
284	6995
286	6998
288	7000
290	7002
293	7004
297	7006
300	7008
303	7010
306	7012
309	7014
311	7016
312	7018
313	7020
313	7022
313	7024
311	7026
309	7028
306	7030
304	7032
302	7034
300	7036
299	7038
298	7040
297	7042
296	7044
295	7046
294	7048
294	7050
293	7052
293	7054
292	7056
292	7058
292	7060
291	7062
291	7064
291	7066
291	7068
291	7070
290	7072
290	7074
290	7076
289	7078
289	7080
289	7083
289	7085
289	7087
288	7089
288	7091
288	7093
288	7095
288	7097
288	7099
288	7101
288	7103
288	7105
288	7107
288	7109
288	7111
288	7113
288	7115
288	7117
288	7119
288	7121
288	7123
288	7126
288	7128
288	7130
288	7132
289	7134
289	7136
288	7138
289	7140
289	7142
289	7144
289	7146
289	7148
289	7150
289	7152
289	7154
290	7156
289	7158
289	7160
289	7162
290	7164
289	7166
290	7168
290	7170
290	7172
290	7174
290	7176
291	7178
291	7180
291	7182
291	7184
291	7186
291	7188
291	7190
292	7192
291	7194
292	7196
292	7198
292	7200
293	7202
293	7204
293	7206
293	7208
294	7211
294	7213
295	7215
295	7217
295	7219
296	7221
296	7223
296	7225
296	7227
297	7229
297	7231
298	7233
298	7235
298	7237
299	7239
300	7241
300	7243
300	7245
301	7247
301	7249
302	7251
302	7254
302	7256
302	7258
303	7260
303	7262
303	7264
304	7266
304	7268
304	7270
304	7272
304	7274
304	7276
304	7278
305	7280
304	7282
304	7284
304	7286
304	7288
304	7290
304	7292
303	7294
303	7296
303	7298
303	7300
302	7302
302	7304
301	7306
300	7308
300	7310
300	7312
299	7314
299	7316
298	7318
297	7320
297	7322
296	7324
296	7326
295	7328
295	7330
294	7332
294	7334
293	7336
293	7339
292	7341
292	7343
292	7345
291	7347
290	7349
291	7351
290	7353
290	7355
290	7357
289	7359
289	7361
289	7363
288	7365
288	7367
288	7369
288	7371
287	7373
287	7375
287	7377
287	7379
287	7382
287	7384
287	7386
286	7388
286	7390
286	7392
286	7394
286	7396
286	7398
286	7400
286	7402
286	7404
286	7406
286	7408
286	7410
286	7412
286	7414
286	7416
286	7418
286	7420
286	7422
286	7424
286	7426
286	7428
286	7430
286	7432
286	7434
286	7436
286	7438
286	7440
286	7442
286	7444
286	7446
286	7448
287	7450
287	7452
286	7454
287	7456
287	7458
286	7460
287	7462
287	7464
287	7467
287	7469
287	7471
287	7473
287	7475
287	7477
287	7479
287	7481
287	7483
287	7485
287	7487
287	7489
287	7491
287	7493
287	7495
287	7497
288	7499
288	7501
288	7503
287	7505
288	7507
287	7510
288	7512
287	7514
287	7516
288	7518
287	7520
287	7522
288	7524
287	7526
287	7528
288	7530
287	7532
288	7534
287	7536
288	7538
288	7540
288	7542
288	7544
288	7546
287	7548
288	7550
288	7552
288	7554
288	7556
288	7558
288	7560
288	7562
288	7564
287	7566
288	7568
288	7570
288	7572
288	7574
288	7576
288	7578
288	7580
288	7582
287	7584
288	7586
288	7588
288	7590
288	7592
288	7595
288	7597
288	7599
288	7601
289	7603
288	7605
289	7607
288	7609
288	7611
289	7613
288	7615
289	7617
289	7619
290	7621
290	7623
290	7625
290	7627
291	7629
291	7631
291	7633
292	7635
292	7638
292	7640
293	7642
293	7644
294	7646
294	7648
294	7650
294	7652
295	7654
295	7656
295	7658
295	7660
295	7662
295	7664
295	7666
296	7668
295	7670
295	7672
295	7674
296	7676
296	7678
295	7680
296	7682
295	7684
295	7686
295	7688
294	7690
294	7692
294	7694
293	7696
293	7698
293	7700
292	7702
293	7704
292	7706
292	7708
291	7710
291	7712
291	7714
291	7716
290	7718
291	7720
290	7723
290	7725
290	7727
289	7729
289	7731
289	7733
289	7735
289	7737
288	7739
288	7741
289	7743
288	7745
288	7747
288	7749
288	7751
289	7753
288	7755
288	7757
288	7759
288	7761
287	7763
287	7766
286	7768
286	7770
284	7772
284	7774
284	7776
283	7778
283	7780
284	7782
285	7784
288	7786
290	7788
293	7790
296	7792
299	7794
303	7796
306	7798
309	7800
311	7802
312	7804
313	7806
313	7808
313	7810
311	7812
309	7814
307	7816
305	7818
303	7820
302	7822
300	7824
298	7826
298	7828
297	7830
296	7832
295	7834
295	7836
295	7838
294	7840
293	7842
293	7844
293	7846
292	7848
292	7851
292	7853
291	7855
291	7857
291	7859
291	7861
290	7863
290	7865
290	7867
289	7869
289	7871
289	7873
289	7875
289	7877
288	7879
289	7881
288	7883
288	7885
288	7887
288	7889
288	7891
288	7894
288	7896
288	7898
288	7900
288	7902
288	7904
288	7906
288	7908
288	7910
288	7912
288	7914
288	7916
288	7918
288	7920
288	7922
288	7924
288	7926
288	7928
288	7930
288	7932
288	7934
288	7936
288	7938
289	7940
289	7942
289	7944
289	7946
289	7948
289	7950
289	7952
289	7954
289	7956
289	7958
290	7960
290	7962
290	7964
290	7966
290	7968
290	7970
291	7972
291	7974
291	7976
291	7979
291	7981
291	7983
292	7985
292	7987
292	7989
292	7991
292	7993
293	7995
293	7997
293	7999
294	8001
294	8003
294	8005
295	8007
295	8009
295	8011
295	8013
296	8015
296	8017
297	8019
297	8022
297	8024
298	8026
298	8028
298	8030
299	8032
300	8034
299	8036
300	8038
300	8040
300	8042
301	8044
301	8046
302	8048
302	8050
302	8052
302	8054
303	8056
303	8058
304	8060
303	8062
304	8064
303	8066
303	8068
303	8070
303	8072
304	8074
303	8076
303	8078
303	8080
303	8082
302	8084
302	8086
301	8088
301	8090
301	8092
300	8094
300	8096
299	8098
299	8100
298	8102
298	8104
298	8107
297	8109
296	8111
296	8113
295	8115
295	8117
295	8119
294	8121
293	8123
293	8125
293	8127
292	8129
292	8131
292	8133
291	8135
291	8137
290	8139
291	8141
290	8143
289	8145
289	8147
289	8150
289	8152
288	8154
288	8156
288	8158
288	8160
288	8162
288	8164
287	8166
287	8168
287	8170
287	8172
287	8174
286	8176
287	8178
286	8180
286	8182
286	8184
286	8186
286	8188
286	8190
286	8192
286	8194
286	8196
286	8198
286	8200
286	8202
286	8204
286	8206
286	8208
286	8210
286	8212
286	8214
285	8216
285	8218
286	8220
286	8222
286	8224
286	8226
286	8228
286	8230
286	8232
286	8235
286	8237
286	8239
286	8241
286	8243
286	8245
287	8247
286	8249
286	8251
287	8253
287	8255
287	8257
286	8259
287	8261
287	8263
287	8265
287	8267
287	8269
287	8271
287	8273
287	8275
287	8278
287	8280
287	8282
287	8284
288	8286
288	8288
287	8290
288	8292
287	8294
287	8296
288	8298
288	8300
288	8302
288	8304
288	8306
288	8308
288	8310
288	8312
288	8314
288	8316
288	8318
288	8320
288	8322
288	8324
288	8326
288	8328
288	8330
288	8332
288	8334
288	8336
289	8338
288	8340
288	8342
288	8344
288	8346
288	8348
288	8350
288	8352
288	8354
288	8356
289	8358
288	8360
288	8363
289	8365
288	8367
289	8369
289	8371
288	8373
289	8375
289	8377
288	8379
289	8381
289	8383
289	8385
289	8387
289	8389
289	8391
289	8393
289	8395
289	8397
289	8399
289	8401
289	8403
289	8406
289	8408
290	8410
289	8412
289	8414
289	8416
289	8418
289	8420
289	8422
289	8424
289	8426
289	8428
289	8430
289	8432
289	8434
289	8436
289	8438
289	8440
290	8442
290	8444
290	8446
290	8448
291	8450
291	8452
291	8454
292	8456
292	8458
292	8460
293	8462
293	8464
294	8466
294	8468
295	8470
295	8472
295	8474
295	8476
296	8478
295	8480
296	8482
296	8484
295	8486
296	8488
296	8491
295	8493
296	8495
296	8497
296	8499
295	8501
295	8503
296	8505
295	8507
295	8509
295	8511
294	8513
294	8515
294	8517
293	8519
293	8521
293	8523
293	8525
292	8527
292	8529
292	8531
292	8534
291	8536
291	8538
291	8540
290	8542
291	8544
290	8546
290	8548
290	8550
290	8552
289	8554
289	8556
289	8558
289	8560
288	8562
288	8564
289	8566
288	8568
289	8570
288	8572
288	8574
288	8576
287	8578
288	8580
288	8582
288	8584
288	8586
287	8588
287	8590
286	8592
285	8594
284	8596
284	8598
283	8600
283	8602
283	8604
284	8606
286	8608
288	8610
291	8612
293	8614
296	8616
300	8619
303	8621
307	8623
309	8625
312	8627
313	8629
314	8631
313	8633
313	8635
311	8637
309	8639
306	8641
304	8643
303	8645
301	8647
300	8649
299	8651
298	8653
297	8655
296	8657
296	8659
295	8662
294	8664
294	8666
294	8668
293	8670
293	8672
292	8674
292	8676
292	8678
291	8680
291	8682
291	8684
290	8686
290	8688
290	8690
289	8692
289	8694
289	8696
289	8698
289	8700
289	8702
289	8704
288	8706
288	8708
288	8710
288	8712
288	8714
288	8716
288	8718
288	8720
288	8722
288	8724
288	8726
288	8728
288	8730
288	8732
287	8734
287	8736
287	8738
287	8740
288	8742
287	8744
287	8747
288	8749
287	8751
288	8753
288	8755
287	8757
288	8759
288	8761
288	8763
288	8765
288	8767
288	8769
288	8771
288	8773
289	8775
288	8777
288	8779
288	8781
288	8783
289	8785
289	8787
288	8790
289	8792
289	8794
289	8796
290	8798
289	8800
290	8802
290	8804
290	8806
291	8808
290	8810
291	8812
291	8814
291	8816
291	8818
292	8820
291	8822
292	8824
292	8826
292	8828
293	8830
293	8832
293	8834
294	8836
294	8838
294	8840
295	8842
295	8844
295	8846
296	8848
296	8850
296	8852
297	8854
297	8856
298	8858
298	8860
298	8862
298	8864
299	8866
299	8868
300	8870
300	8872
300	8875
301	8877
301	8879
301	8881
302	8883
302	8885
302	8887
302	8889
302	8891
302	8893
302	8895
302	8897
302	8899
302	8901
302	8903
301	8905
301	8907
301	8909
301	8911
300	8913
300	8915
300	8918
299	8920
298	8922
298	8924
298	8926
297	8928
297	8930
297	8932
296	8934
296	8936
295	8938
295	8940
295	8942
294	8944
294	8946
294	8948
293	8950
292	8952
292	8954
291	8956
291	8958
291	8960
291	8962
291	8964
290	8966
290	8968
290	8970
290	8972
289	8974
289	8976
289	8978
289	8980
289	8982
289	8984
288	8986
288	8988
288	8990
288	8992
287	8994
287	8996
287	8998
287	9000
287	9003
287	9005
287	9007
287	9009
287	9011
287	9013
287	9015
287	9017
287	9019
287	9021
287	9023
286	9025
287	9027
287	9029
287	9031
287	9033
286	9035
286	9037
286	9039
286	9041
287	9043
287	9046
286	9048
287	9050
287	9052
287	9054
287	9056
287	9058
287	9060
287	9062
287	9064
287	9066
287	9068
287	9070
287	9072
287	9074
287	9076
287	9078
288	9080
287	9082
288	9084
288	9086
288	9088
288	9090
288	9092
288	9094
288	9096
288	9098
288	9100
288	9102
288	9104
288	9106
288	9108
288	9110
288	9112
288	9114
288	9116
288	9118
288	9120
288	9122
288	9124
288	9126
289	9128
288	9131
288	9133
288	9135
288	9137
288	9139
288	9141
288	9143
288	9145
288	9147
289	9149
289	9151
288	9153
289	9155
288	9157
288	9159
289	9161
289	9163
289	9165
288	9167
288	9169
289	9171
289	9174
289	9176
289	9178
289	9180
289	9182
289	9184
289	9186
289	9188
289	9190
289	9192
289	9194
289	9196
289	9198
289	9200
289	9202
289	9204
289	9206
289	9208
289	9210
289	9212
288	9214
289	9216
289	9218
289	9220
289	9222
289	9224
289	9226
289	9228
289	9230
289	9232
289	9234
289	9236
289	9238
289	9240
289	9242
289	9244
289	9246
289	9248
289	9250
289	9252
289	9254
289	9256
289	9259
289	9261
289	9263
290	9265
289	9267
290	9269
290	9271
291	9273
291	9275
291	9277
291	9279
292	9281
292	9283
293	9285
292	9287
293	9289
293	9291
294	9293
295	9295
295	9297
295	9299
295	9302
295	9304
295	9306
296	9308
296	9310
296	9312
296	9314
296	9316
296	9318
296	9320
295	9322
296	9324
295	9326
296	9328
296	9330
295	9332
295	9334
294	9336
294	9338
294	9340
293	9342
293	9344
293	9346
293	9348
292	9350
292	9352
292	9354
292	9356
291	9358
291	9360
291	9362
291	9364
291	9366
290	9368
290	9370
290	9372
290	9374
290	9376
289	9378
289	9380
289	9382
289	9384
289	9387
289	9389
288	9391
288	9393
288	9395
288	9397
288	9399
288	9401
288	9403
288	9405
287	9407
288	9409
288	9411
287	9413
286	9415
286	9417
285	9419
284	9421
283	9423
283	9425
282	9427
282	9430
282	9432
283	9434
286	9436
287	9438
290	9440
294	9442
297	9444
300	9446
304	9448
307	9450
310	9452
312	9454
313	9456
314	9458
314	9460
312	9462
310	9464
308	9466
306	9468
303	9470
302	9472
301	9474
299	9476
298	9478
297	9480
296	9482
295	9484
294	9486
294	9488
293	9490
292	9492
293	9494
292	9496
291	9498
291	9500
291	9502
291	9504
290	9506
290	9508
290	9510
289	9512
289	9515
289	9517
289	9519
289	9521
288	9523
288	9525
288	9527
288	9529
288	9531
288	9533
288	9535
288	9537
288	9539
287	9541
288	9543
287	9545
287	9547
287	9549
287	9551
288	9553
288	9555
288	9558
288	9560
287	9562
287	9564
288	9566
288	9568
288	9570
288	9572
288	9574
288	9576
288	9578
288	9580
288	9582
288	9584
288	9586
288	9588
288	9590
288	9592
288	9594
288	9596
289	9598
289	9600
288	9602
289	9604
289	9606
289	9608
289	9610
289	9612
289	9614
289	9616
290	9618
289	9620
290	9622
290	9624
290	9626
290	9628
291	9630
291	9632
291	9634
291	9636
291	9638
292	9640
292	9643
292	9645
292	9647
293	9649
293	9651
293	9653
293	9655
294	9657
294	9659
295	9661
295	9663
295	9665
295	9667
295	9669
296	9671
296	9673
297	9675
297	9677
297	9679
298	9681
298	9683
299	9686
299	9688
299	9690
300	9692
300	9694
300	9696
300	9698
301	9700
301	9702
301	9704
302	9706
302	9708
302	9710
302	9712
302	9714
303	9716
303	9718
303	9720
303	9722
302	9724
303	9726
302	9728
302	9730
302	9732
301	9734
302	9736
301	9738
300	9740
300	9742
300	9744
299	9746
299	9748
298	9750
298	9752
297	9754
297	9756
297	9758
296	9760
296	9762
295	9764
295	9766
294	9768
294	9771
293	9773
293	9775
292	9777
292	9779
292	9781
291	9783
291	9785
291	9787
290	9789
290	9791
289	9793
289	9795
289	9797
289	9799
289	9801
288	9803
288	9805
288	9807
287	9809
287	9811
287	9814
287	9816
287	9818
286	9820
286	9822
286	9824
286	9826
286	9828
286	9830
286	9832
286	9834
286	9836
286	9838
286	9840
285	9842
286	9844
285	9846
285	9848
286	9850
286	9852
286	9854
286	9856
285	9858
286	9860
285	9862
286	9864
286	9866
286	9868
286	9870
286	9872
286	9874
286	9876
286	9878
286	9880
286	9882
286	9884
286	9886
286	9888
286	9890
287	9892
286	9894
287	9896
287	9899
287	9901
287	9903
286	9905
287	9907
287	9909
287	9911
287	9913
287	9915
287	9917
287	9919
287	9921
287	9923
287	9925
287	9927
287	9929
287	9931
287	9933
288	9935
287	9937
287	9939
287	9942
287	9944
287	9946
287	9948
287	9950
287	9952
287	9954
287	9956
287	9958
287	9960
287	9962
287	9964
287	9966
287	9968
287	9970
287	9972
288	9974
287	9976
287	9978
288	9980
288	9982
288	9984
288	9986
288	9988
288	9990
287	9992
288	9994
288	9996
288	9998
288	10000
288	10002
288	10004
288	10006
287	10008
288	10010
288	10012
288	10014
288	10016
288	10018
288	10020
288	10022
288	10024
288	10027
288	10029
287	10031
288	10033
288	10035
288	10037
288	10039
287	10041
288	10043
288	10045
288	10047
288	10049
288	10051
288	10053
288	10055
288	10057
288	10059
288	10061
288	10063
288	10065
288	10067
288	10070
288	10072
289	10074
289	10076
289	10078
289	10080
290	10082
290	10084
290	10086
290	10088
291	10090
291	10092
291	10094
292	10096
292	10098
293	10100
293	10102
294	10104
293	10106
295	10108
295	10110
295	10112
295	10114
295	10116
295	10118
295	10120
295	10122
295	10124
294	10126
295	10128
295	10130
295	10132
296	10134
295	10136
295	10138
295	10140
295	10142
294	10144
294	10146
294	10148
294	10150
293	10152
293	10155
293	10157
292	10159
292	10161
292	10163
292	10165
292	10167
291	10169
291	10171
291	10173
290	10175
290	10177
290	10179
290	10181
290	10183
290	10185
290	10187
289	10189
289	10191
289	10193
289	10195
289	10198
289	10200
289	10202
289	10204
289	10206
288	10208
288	10210
288	10212
288	10214
288	10216
288	10218
287	10220
287	10222
286	10224
285	10226
284	10228
284	10230
283	10232
283	10234
283	10236
284	10238
284	10240
287	10242
289	10244
292	10246
295	10248
298	10250
301	10252
304	10254
307	10256
310	10258
311	10260
313	10262
313	10264
312	10266
312	10268
310	10270
307	10272
305	10274
302	10276
301	10278
299	10280
298	10283
297	10285
296	10287
295	10289
294	10291
293	10293
293	10295
292	10297
292	10299
292	10301
291	10303
291	10305
291	10307
290	10309
290	10311
290	10313
290	10315
290	10317
289	10319
289	10321
289	10323
289	10326
289	10328
288	10330
288	10332
288	10334
288	10336
288	10338
288	10340
288	10342
288	10344
288	10346
288	10348
288	10350
288	10352
288	10354
288	10356
288	10358
288	10360
288	10362
288	10364
288	10366
288	10368
288	10370
288	10372
288	10374
288	10376
288	10378
288	10380
288	10382
288	10384
288	10386
288	10388
288	10390
289	10392
289	10394
289	10396
289	10398
289	10400
290	10402
289	10404
289	10406
290	10408
290	10411
290	10413
290	10415
290	10417
291	10419
291	10421
290	10423
290	10425
291	10427
291	10429
291	10431
291	10433
292	10435
292	10437
292	10439
293	10441
293	10443
293	10445
293	10447
293	10449
294	10451
294	10454
294	10456
294	10458
295	10460
295	10462
295	10464
296	10466
296	10468
296	10470
296	10472
297	10474
298	10476
298	10478
298	10480
299	10482
299	10484
300	10486
300	10488
301	10490
301	10492
301	10494
301	10496
302	10498
302	10500
302	10502
303	10504
303	10506
304	10508
304	10510
304	10512
304	10514
304	10516
304	10518
305	10520
305	10522
305	10524
305	10526
304	10528
305	10530
305	10532
304	10534
305	10536
304	10539
304	10541
304	10543
303	10545
303	10547
302	10549
302	10551
301	10553
301	10555
300	10557
300	10559
299	10561
298	10563
298	10565
297	10567
297	10569
296	10571
296	10573
296	10575
295	10577
294	10579
294	10582
293	10584
293	10586
293	10588
292	10590
292	10592
291	10594
291	10596
290	10598
290	10600
290	10602
290	10604
289	10606
289	10608
289	10610
289	10612
288	10614
288	10616
288	10618
287	10620
287	10622
287	10624
287	10626
287	10628
286	10630
286	10632
286	10634
286	10636
286	10638
286	10640
286	10642
286	10644
286	10646
286	10648
286	10650
286	10652
285	10654
286	10656
286	10658
286	10660
285	10662
286	10664
286	10667
286	10669
286	10671
286	10673
285	10675
286	10677
286	10679
286	10681
286	10683
286	10685
286	10687
286	10689
286	10691
286	10693
286	10695
286	10697
287	10699
286	10701
286	10703
287	10705
287	10707
287	10710
287	10712
287	10714
287	10716
287	10718
287	10720
287	10722
287	10724
287	10726
287	10728
287	10730
288	10732
287	10734
287	10736
287	10738
287	10740
287	10742
287	10744
287	10746
288	10748
287	10750
287	10752
287	10754
287	10756
287	10758
287	10760
288	10762
287	10764
288	10766
288	10768
288	10770
287	10772
287	10774
288	10776
288	10778
288	10780
287	10782
288	10784
288	10786
287	10788
287	10790
287	10792
288	10795
288	10797
288	10799
288	10801
288	10803
288	10805
288	10807
288	10809
288	10811
288	10813
288	10815
288	10817
288	10819
288	10821
288	10823
288	10825
288	10827
288	10829
288	10831
288	10833
288	10835
288	10838
288	10840
288	10842
288	10844
288	10846
288	10848
288	10850
288	10852
289	10854
288	10856
288	10858
288	10860
288	10862
288	10864
289	10866
288	10868
288	10870
288	10872
288	10874
289	10876
288	10878
289	10880
289	10882
289	10884
289	10886
289	10888
290	10890
290	10892
290	10894
291	10896
291	10898
291	10900
291	10902
292	10904
292	10906
293	10908
293	10910
294	10912
294	10914
294	10916
295	10918
295	10920
295	10923
295	10925
295	10927
295	10929
295	10931
296	10933
296	10935
295	10937
295	10939
296	10941
295	10943
295	10945
295	10947
295	10949
295	10951
295	10953
294	10955
295	10957
294	10959
294	10961
293	10963
292	10966
293	10968
293	10970
292	10972
292	10974
292	10976
291	10978
291	10980
290	10982
291	10984
290	10986
290	10988
290	10990
290	10992
289	10994
289	10996
289	10998
289	11000
289	11002
289	11004
289	11006
288	11008
288	11010
288	11012
288	11014
288	11016
288	11018
288	11020
288	11022
288	11024
288	11026
287	11028
287	11030
286	11032
285	11034
285	11036
284	11038
283	11040
283	11042
283	11044
283	11046
285	11048
286	11051
289	11053
292	11055
295	11057
298	11059
301	11061
304	11063
307	11065
309	11067
311	11069
311	11071
312	11073
311	11075
310	11077
308	11079
306	11081
303	11083
301	11085
300	11087
298	11089
297	11091
296	11094
295	11096
294	11098
293	11100
293	11102
293	11104
292	11106
292	11108
291	11110
291	11112
291	11114
290	11116
290	11118
290	11120
290	11122
290	11124
289	11126
288	11128
289	11130
289	11132
288	11134
288	11136
288	11138
288	11140
288	11142
288	11144
288	11146
287	11148
288	11150
287	11152
287	11154
288	11156
287	11158
288	11160
287	11162
287	11164
287	11166
287	11168
287	11170
287	11172
287	11174
287	11176
287	11179
287	11181
287	11183
287	11185
288	11187
287	11189
287	11191
288	11193
287	11195
288	11197
288	11199
288	11201
288	11203
288	11205
288	11207
288	11209
288	11211
288	11213
289	11215
288	11217
289	11219
289	11222
289	11224
289	11226
289	11228
289	11230
290	11232
290	11234
290	11236
290	11238
290	11240
290	11242
290	11244
290	11246
291	11248
291	11250
291	11252
291	11254
292	11256
292	11258
292	11260
293	11262
292	11264
292	11266
294	11268
294	11270
294	11272
294	11274
294	11276
295	11278
295	11280
296	11282
296	11284
296	11286
297	11288
297	11290
297	11292
298	11294
298	11296
299	11298
300	11300
300	11302
300	11304
301	11307
301	11309
302	11311
302	11313
302	11315
303	11317
303	11319
303	11321
303	11323
303	11325
304	11327
304	11329
304	11331
304	11333
304	11335
304	11337
304	11339
303	11341
303	11343
303	11345
303	11347
303	11350
302	11352
302	11354
302	11356
301	11358
301	11360
300	11362
299	11364
299	11366
298	11368
298	11370
298	11372
297	11374
296	11376
296	11378
295	11380
295	11382
295	11384
294	11386
294	11388
293	11390
293	11392
293	11394
293	11396
292	11398
291	11400
291	11402
290	11404
290	11406
290	11408
290	11410
289	11412
289	11414
288	11416
289	11418
288	11420
287	11422
287	11424
287	11426
287	11428
287	11430
287	11432
287	11435
286	11437
286	11439
286	11441
286	11443
286	11445
285	11447
285	11449
285	11451
285	11453
285	11455
285	11457
285	11459
285	11461
285	11463
285	11465
285	11467
285	11469
285	11471
285	11473
285	11475
285	11478
285	11480
285	11482
285	11484
285	11486
285	11488
285	11490
285	11492
285	11494
285	11496
286	11498
286	11500
286	11502
286	11504
286	11506
286	11508
286	11510
286	11512
286	11514
287	11516
286	11518
287	11520
286	11522
286	11524
287	11526
287	11528
287	11530
287	11532
287	11534
287	11536
287	11538
287	11540
287	11542
287	11544
287	11546
287	11548
288	11550
287	11552
288	11554
287	11556
288	11558
288	11560
288	11563
288	11565
287	11567
288	11569
287	11571
287	11573
288	11575
288	11577
288	11579
288	11581
288	11583
288	11585
288	11587
288	11589
288	11591
288	11593
288	11595
288	11597
288	11599
288	11601
288	11603
288	11606
289	11608
288	11610
288	11612
289	11614
288	11616
289	11618
288	11620
288	11622
289	11624
288	11626
289	11628
289	11630
289	11632
289	11634
289	11636
288	11638
289	11640
289	11642
288	11644
289	11646
289	11648
289	11650
289	11652
289	11654
289	11656
289	11658
289	11660
289	11662
289	11664
289	11666
289	11668
290	11670
289	11672
289	11674
290	11676
290	11678
289	11680
289	11682
289	11684
290	11686
290	11688
289	11691
290	11693
290	11695
289	11697
290	11699
290	11701
290	11703
290	11705
289	11707
290	11709
290	11711
290	11713
290	11715
290	11717
290	11719
290	11721
290	11723
290	11725
290	11727
290	11729
291	11731
291	11734
291	11736
291	11738
291	11740
292	11742
292	11744
292	11746
293	11748
293	11750
293	11752
294	11754
294	11756
295	11758
295	11760
296	11762
296	11764
296	11766
296	11768
296	11770
296	11772
296	11774
296	11776
297	11778
296	11780
296	11782
297	11784
297	11786
297	11788
297	11790
297	11792
297	11794
297	11796
296	11798
297	11800
296	11802
296	11804
295	11806
295	11808
295	11810
294	11812
294	11814
294	11816
294	11819
293	11821
293	11823
293	11825
293	11827
292	11829
292	11831
292	11833
292	11835
291	11837
291	11839
291	11841
291	11843
291	11845
290	11847
290	11849
290	11851
290	11853
290	11855
290	11857
290	11859
290	11862
289	11864
290	11866
290	11868
289	11870
290	11872
289	11874
289	11876
288	11878
288	11880
287	11882
286	11884
285	11886
285	11888
284	11890
284	11892
285	11894
286	11896
287	11898
290	11900
292	11902
294	11904
297	11906
301	11908
304	11910
307	11912
310	11914
312	11916
314	11918
315	11920
315	11922
314	11924
312	11926
310	11928
308	11930
306	11932
304	11934
302	11936
301	11938
300	11940
299	11942
298	11944
297	11947
296	11949
296	11951
295	11953
295	11955
295	11957
294	11959
294	11961
293	11963
293	11965
292	11967
292	11969
292	11971
292	11973
291	11975
291	11977
291	11979
291	11981
291	11983
290	11985
290	11987
290	11990
289	11992
290	11994
289	11996
289	11998
289	12000
289	12002
288	12004
289	12006
288	12008
289	12010
289	12012
288	12014
288	12016
288	12018
288	12020
288	12022
288	12024
288	12026
288	12028
288	12030
288	12032
288	12034
288	12036
288	12038
288	12040
288	12042
288	12044
288	12046
288	12048
288	12050
289	12052
288	12054
289	12056
289	12058
289	12060
289	12062
289	12064
289	12066
289	12068
289	12070
289	12072
290	12075
290	12077
289	12079
290	12081
290	12083
290	12085
290	12087
290	12089
291	12091
291	12093
291	12095
291	12097
291	12099
292	12101
292	12103
292	12105
293	12107
292	12109
293	12111
293	12113
293	12115
293	12118
293	12120
294	12122
294	12124
295	12126
295	12128
295	12130
295	12132
296	12134
297	12136
297	12138
297	12140
297	12142
298	12144
298	12146
299	12148
299	12150
299	12152
300	12154
300	12156
300	12158
300	12160
301	12162
301	12164
301	12166
302	12168
302	12170
302	12172
302	12174
303	12176
303	12178
303	12180
303	12182
303	12184
303	12186
303	12188
302	12190
302	12192
302	12194
302	12196
302	12198
301	12200
301	12203
301	12205
300	12207
300	12209
300	12211
299	12213
299	12215
298	12217
298	12219
298	12221
297	12223
296	12225
296	12227
296	12229
295	12231
295	12233
294	12235
294	12237
293	12239
293	12241
293	12243
292	12246
292	12248
291	12250
291	12252
291	12254
290	12256
290	12258
290	12260
289	12262
290	12264
289	12266
289	12268
289	12270
288	12272
288	12274
288	12276
288	12278
288	12280
288	12282
287	12284
287	12286
287	12288
287	12290
287	12292
287	12294
287	12296
287	12298
286	12300
286	12302
287	12304
287	12306
287	12308
287	12310
286	12312
287	12314
286	12316
286	12318
286	12320
286	12322
287	12324
287	12326
287	12328
286	12331
286	12333
287	12335
286	12337
286	12339
286	12341
286	12343
286	12345
286	12347
287	12349
287	12351
287	12353
287	12355
287	12357
287	12359
287	12361
287	12363
287	12365
287	12367
287	12369
287	12371
287	12374
287	12376
287	12378
287	12380
287	12382
287	12384
287	12386
287	12388
287	12390
287	12392
287	12394
288	12396
288	12398
287	12400
287	12402
288	12404
288	12406
288	12408
287	12410
287	12412
288	12414
288	12416
288	12418
288	12420
288	12422
288	12424
288	12426
288	12428
288	12430
288	12432
288	12434
288	12436
288	12438
288	12440
288	12442
288	12444
288	12446
288	12448
288	12450
288	12452
288	12454
288	12456
288	12459
288	12461
288	12463
288	12465
289	12467
288	12469
288	12471
288	12473
288	12475
288	12477
289	12479
288	12481
289	12483
289	12485
289	12487
288	12489
288	12491
289	12493
288	12495
289	12497
289	12499
289	12502
289	12504
288	12506
289	12508
289	12510
289	12512
289	12514
289	12516
289	12518
289	12520
289	12522
289	12524
289	12526
289	12528
289	12530
289	12532
289	12534
289	12536
290	12538
289	12540
289	12542
289	12544
290	12546
289	12548
289	12550
290	12552
290	12554
289	12556
290	12558
289	12560
290	12562
290	12564
289	12566
290	12568
290	12570
290	12572
290	12574
290	12576
290	12578
290	12580
289	12582
290	12584
290	12587
290	12589
289	12591
290	12593
290	12595
290	12597
290	12599
291	12601
291	12603
291	12605
292	12607
292	12609
292	12611
293	12613
293	12615
294	12617
294	12619
294	12621
295	12623
295	12625
295	12627
295	12630
296	12632
296	12634
296	12636
296	12638
296	12640
296	12642
296	12644
296	12646
296	12648
296	12650
296	12652
296	12654
296	12656
296	12658
296	12660
296	12662
295	12664
295	12666
295	12668
294	12670
294	12672
293	12674
294	12676
293	12678
293	12680
293	12682
292	12684
293	12686
292	12688
292	12690
292	12692
291	12694
292	12696
291	12698
291	12700
291	12702
290	12704
290	12706
290	12708
290	12710
290	12712
290	12715
290	12717
290	12719
289	12721
289	12723
289	12725
289	12727
289	12729
289	12731
289	12733
289	12735
289	12737
288	12739
289	12741
287	12743
287	12745
286	12747
285	12749
284	12751
284	12753
284	12755
284	12758
284	12760
286	12762
288	12764
290	12766
293	12768
297	12770
300	12772
304	12774
307	12776
310	12778
312	12780
314	12782
315	12784
315	12786
314	12788
313	12790
310	12792
308	12794
307	12796
304	12798
304	12800
302	12802
301	12804
300	12806
298	12808
298	12810
297	12812
296	12814
296	12816
295	12818
295	12820
294	12822
293	12824
293	12826
293	12828
293	12830
292	12832
291	12834
291	12836
291	12838
291	12840
291	12843
290	12845
290	12847
290	12849
289	12851
289	12853
289	12855
289	12857
289	12859
289	12861
288	12863
289	12865
288	12867
288	12869
288	12871
288	12873
288	12875
288	12877
288	12879
288	12881
288	12883
288	12886
287	12888
287	12890
288	12892
288	12894
287	12896
288	12898
287	12900
288	12902
288	12904
288	12906
288	12908
288	12910
288	12912
288	12914
288	12916
288	12918
288	12920
288	12922
289	12924
289	12926
289	12928
288	12930
289	12932
289	12934
289	12936
289	12938
289	12940
290	12942
290	12944
290	12946
290	12948
290	12950
290	12952
291	12954
291	12956
291	12958
291	12960
291	12962
291	12964
292	12966
292	12968
292	12971
292	12973
292	12975
293	12977
293	12979
293	12981
293	12983
294	12985
294	12987
294	12989
294	12991
295	12993
295	12995
296	12997
296	12999
296	13001
297	13003
297	13005
297	13007
298	13009
298	13011
298	13014
299	13016
299	13018
299	13020
300	13022
300	13024
300	13026
301	13028
301	13030
302	13032
302	13034
302	13036
302	13038
302	13040
303	13042
303	13044
303	13046
302	13048
303	13050
303	13052
303	13054
303	13056
302	13058
302	13060
302	13062
302	13064
302	13066
301	13068
300	13070
300	13072
300	13074
299	13076
299	13078
298	13080
298	13082
298	13084
297	13086
297	13088
296	13090
296	13092
295	13094
295	13096
294	13099
294	13101
293	13103
293	13105
293	13107
293	13109
292	13111
291	13113
291	13115
291	13117
291	13119
291	13121
290	13123
290	13125
290	13127
289	13129
289	13131
289	13133
288	13135
288	13137
288	13139
288	13142
288	13144
287	13146
287	13148
287	13150
287	13152
287	13154
287	13156
287	13158
287	13160
287	13162
286	13164
286	13166
286	13168
286	13170
286	13172
286	13174
286	13176
286	13178
286	13180
286	13182
286	13184
286	13186
286	13188
286	13190
286	13192
286	13194
286	13196
286	13198
286	13200
286	13202
286	13204
286	13206
287	13208
286	13210
286	13212
287	13214
287	13216
287	13218
287	13220
287	13222
287	13224
287	13227
287	13229
287	13231
287	13233
287	13235
287	13237
287	13239
287	13241
287	13243
287	13245
287	13247
287	13249
288	13251
288	13253
288	13255
288	13257
287	13259
287	13261
287	13263
287	13265
287	13267
287	13270
287	13272
288	13274
287	13276
288	13278
288	13280
287	13282
287	13284
288	13286
288	13288
288	13290
288	13292
288	13294
288	13296
288	13298
287	13300
288	13302
288	13304
288	13306
288	13308
288	13310
288	13312
288	13314
288	13316
288	13318
288	13320
288	13322
288	13324
288	13326
288	13328
288	13330
288	13332
288	13334
288	13336
288	13338
288	13340
288	13342
288	13344
288	13346
289	13348
288	13350
289	13352
289	13355
289	13357
289	13359
289	13361
289	13363
289	13365
289	13367
289	13369
289	13371
289	13373
289	13375
289	13377
289	13379
289	13381
289	13383
289	13385
289	13387
289	13389
289	13391
289	13393
289	13395
290	13398
290	13400
290	13402
290	13404
290	13406
290	13408
289	13410
290	13412
289	13414
290	13416
290	13418
290	13420
290	13422
291	13424
291	13426
291	13428
292	13430
291	13432
292	13434
292	13436
292	13438
293	13440
293	13442
294	13444
294	13446
295	13448
295	13450
295	13452
295	13454
296	13456
295	13458
296	13460
296	13462
296	13464
296	13466
296	13468
296	13470
296	13472
296	13474
296	13476
296	13478
296	13480
296	13483
296	13485
296	13487
295	13489
295	13491
295	13493
294	13495
294	13497
294	13499
293	13501
293	13503
293	13505
292	13507
292	13509
292	13511
292	13513
291	13515
291	13517
291	13519
291	13521
290	13523
290	13526
290	13528
290	13530
290	13532
290	13534
290	13536
290	13538
289	13540
290	13542
289	13544
289	13546
289	13548
288	13550
289	13552
289	13554
288	13556
288	13558
288	13560
288	13562
288	13564
288	13566
287	13568
286	13570
286	13572
285	13574
284	13576
283	13578
283	13580
284	13582
285	13584
286	13586
288	13588
291	13590
294	13592
298	13594
301	13596
304	13598
308	13600
310	13602
312	13604
314	13606
314	13608
314	13611
314	13613
312	13615
310	13617
307	13619
304	13621
303	13623
301	13625
299	13627
298	13629
296	13631
296	13633
295	13635
294	13637
294	13639
293	13641
293	13643
292	13645
292	13647
291	13649
291	13651
290	13654
291	13656
290	13658
290	13660
290	13662
289	13664
289	13666
289	13668
289	13670
289	13672
288	13674
288	13676
288	13678
288	13680
288	13682
288	13684
287	13686
288	13688
288	13690
287	13692
288	13694
288	13696
288	13698
288	13700
288	13702
287	13704
287	13706
287	13708
288	13710
287	13712
288	13714
288	13716
287	13718
288	13720
288	13722
288	13724
288	13726
288	13728
288	13730
288	13732
288	13734
288	13736
288	13739
289	13741
288	13743
289	13745
289	13747
289	13749
289	13751
289	13753
289	13755
289	13757
290	13759
289	13761
290	13763
290	13765
290	13767
290	13769
290	13771
291	13773
291	13775
291	13777
291	13779
291	13782
291	13784
292	13786
292	13788
292	13790
292	13792
293	13794
293	13796
293	13798
294	13800
294	13802
294	13804
294	13806
294	13808
295	13810
295	13812
296	13814
296	13816
296	13818
297	13820
297	13822
297	13824
298	13826
298	13828
299	13830
299	13832
299	13834
300	13836
300	13838
300	13840
301	13842
301	13844
302	13846
302	13848
302	13850
303	13852
303	13854
303	13856
303	13858
303	13860
304	13862
304	13864
304	13867
304	13869
304	13871
304	13873
304	13875
304	13877
303	13879
304	13881
303	13883
303	13885
303	13887
302	13889
301	13891
301	13893
301	13895
301	13897
300	13899
299	13901
299	13903
299	13905
298	13907
297	13910
297	13912
297	13914
296	13916
295	13918
295	13920
294	13922
294	13924
293	13926
293	13928
293	13930
292	13932
292	13934
291	13936
291	13938
291	13940
290	13942
290	13944
290	13946
289	13948
289	13950
289	13952
289	13954
289	13956
288	13958
288	13960
288	13962
288	13964
287	13966
287	13968
287	13970
287	13972
286	13974
286	13976
286	13978
286	13980
286	13982
286	13984
286	13986
286	13988
286	13990
286	13992
286	13995
285	13997
286	13999
286	14001
286	14003
285	14005
286	14007
286	14009
286	14011
286	14013
286	14015
286	14017
286	14019
286	14021
286	14023
286	14025
286	14027
286	14029
286	14031
286	14033
286	14035
287	14038
286	14040
287	14042
287	14044
286	14046
287	14048
287	14050
287	14052
287	14054
287	14056
287	14058
287	14060
287	14062
287	14064
287	14066
287	14068
288	14070
287	14072
288	14074
288	14076
288	14078
288	14080
288	14082
288	14084
288	14086
288	14088
288	14090
288	14092
288	14094
288	14096
288	14098
288	14100
288	14102
288	14104
288	14106
288	14108
288	14110
289	14112
288	14114
289	14116
289	14118
288	14120
289	14123
288	14125
289	14127
289	14129
289	14131
289	14133
289	14135
289	14137
289	14139
289	14141
289	14143
289	14145
289	14147
289	14149
289	14151
289	14153
290	14155
290	14157
289	14159
290	14161
290	14163
290	14166
289	14168
290	14170
290	14172
289	14174
289	14176
289	14178
290	14180
290	14182
290	14184
290	14186
291	14188
291	14190
291	14192
291	14194
292	14196
292	14198
293	14200
293	14202
293	14204
293	14206
294	14208
294	14210
295	14212
295	14214
295	14216
296	14218
296	14220
296	14222
296	14224
296	14226
296	14228
296	14230
296	14232
297	14234
296	14236
296	14238
297	14240
296	14242
296	14244
296	14246
296	14248
296	14251
296	14253
295	14255
296	14257
295	14259
295	14261
294	14263
294	14265
294	14267
293	14269
293	14271
293	14273
293	14275
292	14277
292	14279
291	14281
291	14283
291	14285
291	14287
291	14289
290	14291
290	14294
290	14296
290	14298
290	14300
289	14302
289	14304
289	14306
289	14308
289	14310
289	14312
289	14314
288	14316
289	14318
288	14320
288	14322
288	14324
287	14326
288	14328
287	14330
287	14332
286	14334
286	14336
285	14338
284	14340
284	14342
283	14344
283	14346
284	14348
284	14350
286	14352
288	14354
290	14356
294	14358
297	14360
300	14362
304	14364
307	14366
309	14368
311	14370
313	14372
313	14374
312	14376
312	14379
310	14381
307	14383
305	14385
303	14387
301	14389
300	14391
299	14393
298	14395
297	14397
296	14399
295	14401
295	14403
294	14405
294	14407
293	14409
292	14411
293	14413
292	14415
292	14417
291	14419
290	14422
290	14424
290	14426
289	14428
289	14430
289	14432
289	14434
289	14436
288	14438
288	14440
288	14442
288	14444
288	14446
288	14448
287	14450
287	14452
287	14454
287	14456
287	14458
287	14460
287	14462
287	14464
287	14466
287	14468
287	14470
287	14472
287	14474
287	14476
287	14478
286	14480
287	14482
287	14484
287	14486
287	14488
287	14490
287	14492
287	14494
287	14496
287	14498
287	14500
287	14502
287	14504
287	14507
288	14509
288	14511
288	14513
288	14515
288	14517
288	14519
288	14521
289	14523
288	14525
289	14527
288	14529
289	14531
289	14533
289	14535
290	14537
290	14539
290	14541
290	14543
290	14545
290	14547
290	14550
291	14552
291	14554
291	14556
292	14558
292	14560
292	14562
292	14564
292	14566
293	14568
293	14570
293	14572
294	14574
294	14576
294	14578
295	14580
295	14582
295	14584
296	14586
296	14588
296	14590
297	14592
297	14594
298	14596
298	14598
299	14600
299	14602
299	14604
300	14606
300	14608
301	14610
301	14612
301	14614
302	14616
302	14618
302	14620
303	14622
303	14624
303	14626
303	14628
303	14630
304	14632
303	14635
303	14637
303	14639
303	14641
303	14643
303	14645
302	14647
303	14649
302	14651
302	14653
302	14655
301	14657
301	14659
300	14661
300	14663
299	14665
299	14667
298	14669
297	14671
297	14673
296	14675
296	14678
296	14680
295	14682
294	14684
294	14686
294	14688
293	14690
293	14692
292	14694
292	14696
291	14698
291	14700
291	14702
291	14704
290	14706
290	14708
289	14710
289	14712
288	14714
288	14716
288	14718
288	14720
288	14722
287	14724
287	14726
287	14728
287	14730
287	14732
286	14734
286	14736
286	14738
286	14740
286	14742
286	14744
286	14746
285	14748
285	14750
285	14752
285	14754
285	14756
285	14758
285	14760
285	14763
285	14765
285	14767
285	14769
285	14771
285	14773
285	14775
285	14777
285	14779
285	14781
285	14783
284	14785
285	14787
285	14789
285	14791
285	14793
285	14795
285	14797
285	14799
285	14801
285	14803
285	14806
285	14808
285	14810
285	14812
286	14814
286	14816
286	14818
286	14820
286	14822
286	14824
286	14826
286	14828
286	14830
286	14832
286	14834
286	14836
286	14838
286	14840
286	14842
286	14844
286	14846
286	14848
286	14850
287	14852
286	14854
286	14856
286	14858
286	14860
286	14862
287	14864
287	14866
287	14868
287	14870
287	14872
287	14874
287	14876
287	14878
287	14880
287	14882
287	14884
287	14886
287	14888
287	14891
287	14893
287	14895
287	14897
287	14899
287	14901
287	14903
287	14905
288	14907
288	14909
287	14911
287	14913
288	14915
288	14917
288	14919
288	14921
288	14923
288	14925
288	14927
288	14929
288	14931
288	14934
288	14936
288	14938
289	14940
289	14942
289	14944
290	14946
290	14948
290	14950
290	14952
290	14954
291	14956
291	14958
292	14960
293	14962
293	14964
294	14966
294	14968
294	14970
295	14972
294	14974
294	14976
295	14978
294	14980
295	14982
295	14984
295	14986
295	14988
295	14990
295	14992
295	14994
295	14996
295	14998
295	15000
295	15002
295	15004
294	15006
294	15008
294	15010
293	15012
293	15014
293	15016
292	15019
292	15021
292	15023
292	15025
292	15027
291	15029
291	15031
291	15033
290	15035
290	15037
290	15039
290	15041
290	15043
289	15045
289	15047
289	15049
289	15051
289	15053
288	15055
289	15057
288	15059
288	15062
288	15064
288	15066
288	15068
288	15070
288	15072
287	15074
287	15076
287	15078
288	15080
287	15082
287	15084
286	15086
285	15088
285	15090
284	15092
283	15094
283	15096
282	15098
282	15100
284	15102
284	15104
286	15106
288	15108
291	15110
294	15112
297	15114
300	15116
304	15118
307	15120
309	15122
312	15124
313	15126
313	15128
313	15130
312	15132
310	15134
308	15136
305	15138
303	15140
302	15142
300	15144
299	15147
297	15149
297	15151
296	15153
295	15155
294	15157
294	15159
293	15161
293	15163
293	15165
292	15167
292	15169
291	15171
291	15173
291	15175
290	15177
290	15179
290	15181
290	15183
289	15185
289	15187
289	15190
289	15192
289	15194
288	15196
288	15198
288	15200
288	15202
288	15204
288	15206
288	15208
287	15210
287	15212
287	15214
287	15216
287	15218
287	15220
287	15222
287	15224
287	15226
287	15228
287	15230
287	15232
287	15234
287	15236
287	15238
287	15240
287	15242
287	15244
287	15246
287	15248
287	15250
287	15252
287	15254
287	15256
287	15258
287	15260
287	15262
288	15264
288	15266
288	15268
288	15270
288	15272
288	15275
288	15277
288	15279
288	15281
288	15283
288	15285
288	15287
289	15289
289	15291
289	15293
289	15295
289	15297
290	15299
290	15301
290	15303
291	15305
290	15307
291	15309
291	15311
291	15313
291	15315
291	15318
292	15320
292	15322
292	15324
293	15326
293	15328
293	15330
294	15332
294	15334
294	15336
295	15338
295	15340
295	15342
296	15344
296	15346
296	15348
297	15350
297	15352
298	15354
298	15356
298	15358
298	15360
299	15362
299	15364
299	15366
300	15368
300	15370
300	15372
301	15374
301	15376
301	15378
301	15380
302	15382
302	15384
302	15386
302	15388
302	15390
302	15392
302	15394
302	15396
301	15398
301	15400
301	15403
301	15405
301	15407
300	15409
300	15411
299	15413
298	15415
299	15417
298	15419
298	15421
297	15423
297	15425
296	15427
296	15429
296	15431
295	15433
295	15435
294	15437
294	15439
293	15441
293	15443
293	15446
292	15448
292	15450
291	15452
291	15454
290	15456
290	15458
290	15460
290	15462
289	15464
289	15466
289	15468
288	15470
289	15472
288	15474
288	15476
288	15478
287	15480
287	15482
287	15484
287	15486
287	15488
287	15490
287	15492
286	15494
286	15496
286	15498
286	15500
286	15502
286	15504
286	15506
286	15508
286	15510
286	15512
286	15514
286	15516
286	15518
286	15520
285	15522
286	15524
286	15526
286	15528
286	15531
286	15533
286	15535
286	15537
286	15539
286	15541
286	15543
286	15545
286	15547
286	15549
286	15551
286	15553
286	15555
286	15557
286	15559
286	15561
287	15563
286	15565
287	15567
287	15569
287	15571
287	15574
287	15576
287	15578
287	15580
287	15582
287	15584
287	15586
287	15588
287	15590
287	15592
287	15594
287	15596
287	15598
287	15600
287	15602
288	15604
288	15606
287	15608
287	15610
288	15612
288	15614
288	15616
287	15618
287	15620
288	15622
288	15624
287	15626
287	15628
287	15630
287	15632
287	15634
288	15636
288	15638
287	15640
288	15642
288	15644
288	15646
288	15648
288	15650
288	15652
288	15654
288	15656
288	15659
288	15661
288	15663
288	15665
288	15667
288	15669
288	15671
288	15673
288	15675
288	15677
288	15679
289	15681
288	15683
288	15685
288	15687
289	15689
288	15691
289	15693
288	15695
289	15697
289	15699
288	15702
288	15704
288	15706
289	15708
288	15710
288	15712
289	15714
289	15716
289	15718
289	15720
290	15722
290	15724
291	15726
290	15728
291	15730
291	15732
291	15734
292	15736
292	15738
293	15740
293	15742
293	15744
293	15746
293	15748
294	15750
295	15752
295	15754
294	15756
294	15758
295	15760
295	15762
295	15764
295	15766
295	15768
294	15770
295	15772
295	15774
295	15776
295	15778
295	15780
295	15782
295	15784
294	15787
294	15789
294	15791
293	15793
293	15795
293	15797
292	15799
293	15801
292	15803
292	15805
292	15807
291	15809
291	15811
291	15813
290	15815
290	15817
291	15819
290	15821
290	15823
289	15825
289	15827
289	15830
289	15832
289	15834
289	15836
289	15838
288	15840
288	15842
288	15844
288	15846
288	15848
288	15850
288	15852
288	15854
288	15856
288	15858
288	15860
287	15862
287	15864
286	15866
285	15868
285	15870
284	15872
284	15874
283	15876
283	15878
283	15880
283	15882
285	15884
287	15886
289	15888
292	15890
295	15892
299	15894
302	15896
305	15898
309	15900
311	15902
313	15904
314	15906
314	15908
313	15910
312	15912
310	15915
308	15917
305	15919
303	15921
302	15923
300	15925
299	15927
297	15929
296	15931
296	15933
295	15935
294	15937
294	15939
293	15941
293	15943
292	15945
292	15947
292	15949
291	15951
291	15953
291	15955
290	15958
290	15960
290	15962
289	15964
289	15966
289	15968
289	15970
288	15972
288	15974
288	15976
288	15978
288	15980
288	15982
288	15984
288	15986
288	15988
288	15990
288	15992
288	15994
287	15996
287	15998
287	16000
287	16002
287	16004
287	16006
287	16008
287	16010
287	16012
287	16014
287	16016
287	16018
287	16020
287	16022
288	16024
287	16026
287	16028
288	16030
288	16032
287	16034
288	16036
288	16038
288	16040
288	16043
288	16045
288	16047
288	16049
288	16051
288	16053
289	16055
288	16057
288	16059
289	16061
289	16063
289	16065
289	16067
290	16069
289	16071
290	16073
290	16075
290	16077
290	16079
290	16081
291	16083
291	16086
291	16088
291	16090
291	16092
292	16094
292	16096
292	16098
292	16100
292	16102
293	16104
293	16106
293	16108
294	16110
295	16112
294	16114
295	16116
295	16118
295	16120
296	16122
296	16124
296	16126
297	16128
297	16130
298	16132
298	16134
298	16136
299	16138
299	16140
300	16142
300	16144
300	16146
301	16148
301	16150
301	16152
301	16154
302	16156
302	16158
302	16160
302	16162
302	16164
302	16166
303	16168
302	16171
302	16173
302	16175
302	16177
302	16179
302	16181
301	16183
301	16185
301	16187
300	16189
300	16191
300	16193
299	16195
299	16197
299	16199
298	16201
298	16203
297	16205
297	16207
297	16209
296	16211
295	16214
295	16216
294	16218
294	16220
294	16222
293	16224
293	16226
292	16228
292	16230
291	16232
291	16234
291	16236
290	16238
290	16240
290	16242
289	16244
289	16246
289	16248
289	16250
289	16252
288	16254
288	16256
288	16258
288	16260
287	16262
287	16264
287	16266
287	16268
287	16270
287	16272
286	16274
286	16276
286	16278
286	16280
286	16282
286	16284
286	16286
286	16288
286	16290
286	16292
286	16294
286	16296
286	16299
286	16301
286	16303
286	16305
286	16307
286	16309
286	16311
286	16313
286	16315
286	16317
286	16319
286	16321
286	16323
286	16325
286	16327
286	16329
286	16331
286	16333
286	16335
287	16337
286	16339
287	16342
287	16344
287	16346
287	16348
287	16350
287	16352
287	16354
287	16356
287	16358
288	16360
287	16362
287	16364
287	16366
287	16368
288	16370
288	16372
287	16374
288	16376
288	16378
288	16380
288	16382
287	16384
287	16386
287	16388
288	16390
288	16392
288	16394
288	16396
288	16398
288	16400
288	16402
288	16404
287	16406
288	16408
288	16410
288	16412
288	16414
288	16416
288	16418
288	16420
289	16422
288	16424
288	16427
288	16429
288	16431
288	16433
288	16435
288	16437
288	16439
288	16441
288	16443
289	16445
288	16447
288	16449
288	16451
288	16453
289	16455
288	16457
289	16459
288	16461
288	16463
289	16465
289	16467
289	16470
289	16472
289	16474
289	16476
289	16478
289	16480
289	16482
289	16484
289	16486
289	16488
289	16490
288	16492
289	16494
289	16496
289	16498
289	16500
289	16502
289	16504
289	16506
289	16508
289	16510
289	16512
289	16514
289	16516
290	16518
289	16520
289	16522
290	16524
289	16526
289	16528
289	16530
289	16532
289	16534
289	16536
289	16538
290	16540
289	16542
290	16544
291	16546
290	16548
291	16550
291	16552
292	16555
292	16557
292	16559
293	16561
294	16563
294	16565
294	16567
295	16569
295	16571
296	16573
296	16575
296	16577
296	16579
296	16581
296	16583
296	16585
296	16587
296	16589
296	16591
296	16593
296	16595
296	16598
296	16600
296	16602
296	16604
296	16606
296	16608
295	16610
295	16612
295	16614
294	16616
294	16618
294	16620
293	16622
293	16624
293	16626
293	16628
292	16630
292	16632
292	16634
291	16636
291	16638
291	16640
291	16642
290	16644
290	16646
290	16648
290	16650
290	16652
290	16654
289	16656
289	16658
289	16660
289	16662
289	16664
289	16666
289	16668
289	16670
289	16672
289	16674
288	16676
288	16678
289	16680
288	16683
288	16685
288	16687
287	16689
287	16691
286	16693
285	16695
285	16697
284	16699
284	16701
283	16703
284	16705
286	16707
288	16709
291	16711
294	16713
297	16715
300	16717
303	16719
306	16721
309	16723
311	16726
313	16728
314	16730
314	16732
313	16734
312	16736
309	16738
307	16740
305	16742
302	16744
301	16746
299	16748
298	16750
297	16752
296	16754
295	16756
294	16758
294	16760
293	16762
293	16764
292	16766
292	16768
292	16770
292	16772
291	16774
291	16776
291	16778
290	16780
290	16782
290	16784
290	16786
289	16788
289	16790
289	16792
289	16794
288	16796
289	16798
288	16800
288	16802
289	16804
288	16806
288	16808
288	16811
288	16813
288	16815
288	16817
288	16819
288	16821
288	16823
288	16825
288	16827
288	16829
288	16831
288	16833
288	16835
288	16837
288	16839
288	16841
288	16843
288	16845
288	16847
288	16849
288	16851
289	16854
288	16856
289	16858
289	16860
289	16862
289	16864
289	16866
289	16868
289	16870
289	16872
289	16874
290	16876
290	16878
290	16880
290	16882
290	16884
290	16886
290	16888
290	16890
290	16892
291	16894
291	16896
291	16898
291	16900
291	16902
291	16904
292	16906
292	16908
292	16910
292	16912
292	16914
292	16916
293	16918
293	16920
293	16922
293	16924
294	16926
294	16928
295	16930
295	16932
295	16934
296	16936
296	16939
296	16941
297	16943
297	16945
298	16947
298	16949
298	16951
299	16953
299	16955
300	16957
300	16959
301	16961
301	16963
301	16965
302	16967
302	16969
303	16971
303	16973
303	16975
303	16977
303	16979
304	16982
304	16984
304	16986
305	16988
304	16990
304	16992
304	16994
304	16996
304	16998
304	17000
304	17002
304	17004
303	17006
303	17008
303	17010
302	17012
302	17014
301	17016
301	17018
301	17020
300	17022
300	17024
300	17026
299	17028
299	17030
298	17032
297	17034
297	17036
296	17038
296	17040
295	17042
295	17044
294	17046
294	17048
293	17050
293	17052
292	17054
292	17056
291	17058
291	17060
291	17062
290	17064
290	17067
290	17069
289	17071
289	17073
289	17075
289	17077
288	17079
288	17081
288	17083
288	17085
287	17087
287	17089
287	17091
287	17093
287	17095
286	17097
286	17099
286	17101
286	17103
286	17105
286	17107
285	17110
286	17112
285	17114
286	17116
285	17118
285	17120
285	17122
285	17124
285	17126
286	17128
285	17130
285	17132
285	17134
285	17136
286	17138
285	17140
285	17142
286	17144
286	17146
286	17148
286	17150
286	17152
285	17154
286	17156
285	17158
286	17160
285	17162
286	17164
286	17166
286	17168
286	17170
286	17172
286	17174
286	17176
286	17178
287	17180
287	17182
286	17184
287	17186
286	17188
287	17190
287	17192
287	17195
287	17197
287	17199
287	17201
287	17203
287	17205
287	17207
287	17209
287	17211
288	17213
287	17215
287	17217
288	17219
287	17221
288	17223
288	17225
287	17227
287	17229
288	17231
287	17233
288	17235
288	17238
288	17240
288	17242
288	17244
288	17246
288	17248
288	17250
288	17252
288	17254
288	17256
288	17258
287	17260
288	17262
288	17264
287	17266
288	17268
288	17270
287	17272
288	17274
288	17276
288	17278
288	17280
288	17282
288	17284
288	17286
288	17288
288	17290
288	17292
288	17294
288	17296
289	17298
288	17300
289	17302
288	17304
288	17306
289	17308
289	17310
289	17312
288	17314
288	17316
289	17318
289	17320
288	17323
289	17325
289	17327
289	17329
289	17331
289	17333
289	17335
289	17337
289	17339
289	17341
289	17343
289	17345
289	17347
289	17349
289	17351
289	17353
289	17355
289	17357
289	17359
289	17361
290	17363
289	17366
289	17368
290	17370
290	17372
290	17374
290	17376
290	17378
291	17380
291	17382
291	17384
292	17386
292	17388
292	17390
293	17392
293	17394
294	17396
294	17398
294	17400
295	17402
295	17404
295	17406
295	17408
295	17410
296	17412
296	17414
296	17416
296	17418
296	17420
296	17422
296	17424
296	17426
296	17428
296	17430
296	17432
296	17434
296	17436
296	17438
295	17440
295	17442
294	17444
294	17446
294	17448
294	17451
293	17453
293	17455
293	17457
293	17459
292	17461
292	17463
292	17465
291	17467
292	17469
291	17471
291	17473
291	17475
291	17477
290	17479
290	17481
290	17483
290	17485
289	17487
289	17489
289	17491
290	17494
289	17496
289	17498
289	17500
289	17502
289	17504
289	17506
289	17508
289	17510
288	17512
289	17514
288	17516
287	17518
288	17520
287	17522
286	17524
285	17526
285	17528
284	17530
284	17532
284	17534
284	17536
284	17538
287	17540
289	17542
291	17544
294	17546
297	17548
301	17550
304	17552
307	17554
310	17556
311	17558
313	17560
313	17562
313	17564
312	17566
311	17568
309	17570
307	17572
304	17574
302	17576
301	17579
299	17581
298	17583
297	17585
296	17587
296	17589
295	17591
294	17593
294	17595
293	17597
293	17599
292	17601
292	17603
292	17605
291	17607
291	17609
291	17611
290	17613
291	17615
290	17617
290	17619
290	17622
290	17624
289	17626
290	17628
289	17630
289	17632
289	17634
289	17636
289	17638
289	17640
288	17642
289	17644
288	17646
288	17648
288	17650
288	17652
288	17654
288	17656
288	17658
288	17660
288	17662
288	17664
288	17666
288	17668
288	17670
288	17672
288	17674
288	17676
289	17678
289	17680
288	17682
289	17684
289	17686
289	17688
289	17690
289	17692
289	17694
289	17696
289	17698
289	17700
290	17702
289	17704
289	17707
290	17709
289	17711
290	17713
290	17715
290	17717
290	17719
291	17721
291	17723
291	17725
290	17727
291	17729
291	17731
291	17733
292	17735
292	17737
292	17739
292	17741
292	17743
293	17745
293	17747
293	17750
293	17752
293	17754
294	17756
294	17758
294	17760
295	17762
295	17764
295	17766
296	17768
296	17770
297	17772
297	17774
297	17776
298	17778
298	17780
298	17782
299	17784
299	17786
300	17788
300	17790
300	17792
301	17794
301	17796
302	17798
302	17800
302	17802
303	17804
303	17806
304	17808
304	17810
304	17812
304	17814
304	17816
305	17818
305	17820
305	17822
305	17824
305	17826
305	17828
305	17830
305	17832
304	17835
304	17837
304	17839
303	17841
303	17843
302	17845
303	17847
302	17849
301	17851
301	17853
300	17855
300	17857
299	17859
298	17861
298	17863
298	17865
297	17867
296	17869
296	17871
296	17873
295	17875
294	17878
294	17880
293	17882
293	17884
293	17886
292	17888
292	17890
291	17892
291	17894
290	17896
290	17898
289	17900
289	17902
289	17904
289	17906
288	17908
288	17910
288	17912
288	17914
288	17916
288	17918
288	17920
287	17922
287	17924
287	17926
287	17928
286	17930
287	17932
286	17934
286	17936
286	17938
286	17940
286	17942
286	17944
286	17946
286	17948
285	17950
285	17952
286	17954
285	17956
285	17958
285	17960
285	17963
285	17965
285	17967
286	17969
286	17971
286	17973
285	17975
285	17977
286	17979
286	17981
286	17983
286	17985
286	17987
286	17989
286	17991
286	17993
286	17995
286	17997
286	17999
286	18001
286	18003
287	18006
286	18008
287	18010
287	18012
287	18014
287	18016
287	18018
287	18020
287	18022
287	18024
287	18026
287	18028
287	18030
287	18032
287	18034
288	18036
287	18038
287	18040
287	18042
287	18044
287	18046
287	18048
288	18050
287	18052
288	18054
288	18056
287	18058
287	18060
288	18062
288	18064
288	18066
288	18068
287	18070
288	18072
288	18074
288	18076
288	18078
288	18080
288	18082
288	18084
288	18086
288	18088
288	18091
287	18093
288	18095
288	18097
288	18099
288	18101
288	18103
288	18105
288	18107
288	18109
288	18111
288	18113
288	18115
288	18117
288	18119
288	18121
288	18123
288	18125
288	18127
288	18129
288	18131
288	18134
288	18136
288	18138
288	18140
288	18142
288	18144
288	18146
288	18148
288	18150
288	18152
288	18154
288	18156
288	18158
289	18160
288	18162
288	18164
288	18166
288	18168
289	18170
289	18172
289	18174
289	18176
289	18178
289	18180
288	18182
289	18184
289	18186
289	18188
289	18190
289	18192
289	18194
289	18196
289	18198
289	18200
289	18202
289	18204
289	18206
289	18208
289	18210
289	18212
289	18214
289	18216
289	18219
289	18221
289	18223
289	18225
289	18227
290	18229
290	18231
289	18233
289	18235
289	18237
290	18239
290	18241
289	18243
290	18245
290	18247
290	18249
290	18251
290	18253
290	18255
290	18257
290	18259
290	18262
290	18264
290	18266
290	18268
290	18270
290	18272
290	18274
290	18276
290	18278
290	18280
290	18282
290	18284
290	18286
291	18288
291	18290
291	18292
291	18294
292	18296
292	18298
292	18300
292	18302
293	18304
293	18306
293	18308
294	18310
294	18312
295	18314
295	18316
296	18318
295	18320
296	18322
296	18324
296	18326
296	18328
296	18330
296	18332
296	18334
296	18336
296	18338
296	18340
297	18342
296	18344
296	18347
296	18349
296	18351
296	18353
295	18355
295	18357
295	18359
295	18361
294	18363
294	18365
294	18367
294	18369
293	18371
293	18373
293	18375
293	18377
293	18379
292	18381
292	18383
292	18385
291	18387
291	18390
291	18392
291	18394
290	18396
290	18398
290	18400
290	18402
290	18404
290	18406
290	18408
289	18410
290	18412
289	18414
289	18416
289	18418
289	18420
289	18422
289	18424
289	18426
289	18428
288	18430
289	18432
288	18434
287	18436
287	18438
286	18440
285	18442
285	18444
284	18446
284	18448
284	18450
284	18452
286	18454
288	18456
290	18458
293	18460
296	18462
300	18464
303	18466
307	18468
310	18470
312	18472
314	18475
315	18477
315	18479
314	18481
313	18483
310	18485
309	18487
306	18489
304	18491
303	18493
301	18495
300	18497
299	18499
298	18501
297	18503
297	18505
296	18507
296	18509
295	18511
295	18513
294	18515
293	18518
293	18520
293	18522
293	18524
292	18526
292	18528
291	18530
291	18532
291	18534
291	18536
290	18538
290	18540
290	18542
289	18544
289	18546
289	18548
289	18550
289	18552
289	18554
288	18556
288	18558
288	18560
288	18562
288	18564
288	18566
288	18568
288	18570
287	18572
288	18574
288	18576
287	18578
288	18580
288	18582
287	18584
287	18586
288	18588
287	18590
287	18592
287	18594
287	18596
287	18598
288	18600
288	18603
288	18605
288	18607
288	18609
288	18611
288	18613
288	18615
288	18617
288	18619
288	18621
288	18623
288	18625
289	18627
288	18629
289	18631
289	18633
288	18635
289	18637
289	18639
289	18641
290	18643
290	18646
290	18648
290	18650
290	18652
291	18654
291	18656
290	18658
291	18660
291	18662
291	18664
291	18666
292	18668
292	18670
292	18672
293	18674
293	18676
293	18678
293	18680
294	18682
294	18684
295	18686
294	18688
295	18690
295	18692
296	18694
296	18696
296	18698
297	18700
297	18702
297	18704
298	18706
298	18708
299	18710
299	18712
300	18714
300	18716
300	18718
300	18720
301	18722
301	18724
301	18726
302	18728
302	18731
302	18733
303	18735
303	18737
303	18739
303	18741
303	18743
303	18745
303	18747
303	18749
303	18751
302	18753
302	18755
302	18757
301	18759
302	18761
301	18763
301	18765
300	18767
300	18769
300	18771
299	18774
298	18776
298	18778
297	18780
297	18782
297	18784
296	18786
295	18788
295	18790
294	18792
294	18794
294	18796
293	18798
293	18800
292	18802
292	18804
291	18806
291	18808
291	18810
290	18812
290	18814
290	18816
290	18818
289	18820
289	18822
289	18824
288	18826
288	18828
288	18830
288	18832
288	18834
288	18836
287	18838
287	18840
287	18842
287	18844
287	18846
286	18848
286	18850
286	18852
286	18854
286	18856
286	18859
286	18861
286	18863
286	18865
285	18867
286	18869
286	18871
286	18873
285	18875
285	18877
286	18879
285	18881
285	18883
285	18885
286	18887
286	18889
286	18891
286	18893
286	18895
286	18897
286	18899
286	18902
286	18904
286	18906
286	18908
286	18910
286	18912
286	18914
286	18916
286	18918
286	18920
286	18922
286	18924
286	18926
286	18928
287	18930
287	18932
287	18934
287	18936
287	18938
287	18940
287	18942
287	18944
287	18946
287	18948
287	18950
287	18952
287	18954
287	18956
287	18958
287	18960
287	18962
288	18964
287	18966
287	18968
288	18970
288	18972
287	18974
287	18976
287	18978
288	18980
288	18982
288	18984
288	18987
288	18989
288	18991
288	18993
288	18995
288	18997
288	18999
288	19001
288	19003
288	19005
288	19007
288	19009
288	19011
288	19013
288	19015
287	19017
288	19019
288	19021
288	19023
288	19025
288	19027
288	19030
288	19032
288	19034
288	19036
288	19038
288	19040
288	19042
288	19044
288	19046
288	19048
288	19050
288	19052
288	19054
289	19056
289	19058
289	19060
289	19062
289	19064
289	19066
289	19068
289	19070
289	19072
289	19074
289	19076
289	19078
289	19080
289	19082
289	19084
289	19086
289	19088
289	19090
289	19092
289	19094
289	19096
289	19098
289	19100
289	19102
289	19104
289	19106
289	19108
289	19110
289	19112
290	19115
289	19117
290	19119
290	19121
290	19123
290	19125
290	19127
290	19129
290	19131
290	19133
290	19135
290	19137
290	19139
290	19141
290	19143
290	19145
290	19147
290	19149
290	19151
290	19153
290	19155
290	19158
290	19160
290	19162
290	19164
290	19166
290	19168
290	19170
290	19172
291	19174
291	19176
291	19178
292	19180
292	19182
292	19184
292	19186
292	19188
293	19190
293	19192
293	19194
294	19196
295	19198
295	19200
295	19202
295	19204
296	19206
296	19208
296	19210
296	19212
296	19214
296	19216
296	19218
296	19220
296	19222
296	19224
296	19226
296	19228
296	19230
296	19232
296	19234
296	19236
296	19238
296	19240
296	19243
296	19245
295	19247
294	19249
294	19251
294	19253
294	19255
293	19257
293	19259
293	19261
293	19263
292	19265
292	19267
292	19269
292	19271
291	19273
291	19275
291	19277
290	19279
291	19281
290	19283
290	19286
290	19288
290	19290
289	19292
290	19294
289	19296
289	19298
289	19300
289	19302
289	19304
289	19306
288	19308
288	19310
288	19312
288	19314
288	19316
288	19318
288	19320
288	19322
287	19324
287	19326
286	19328
285	19330
284	19332
284	19334
283	19336
283	19338
283	19340
284	19342
286	19344
288	19346
291	19348
294	19350
297	19352
301	19354
304	19356
308	19358
310	19360
313	19362
314	19364
315	19366
315	19368
313	19371
312	19373
310	19375
307	19377
305	19379
303	19381
302	19383
301	19385
300	19387
299	19389
298	19391
297	19393
296	19395
295	19397
295	19399
295	19401
294	19403
293	19405
293	19407
293	19409
292	19411
292	19414
291	19416
291	19418
291	19420
290	19422
290	19424
290	19426
290	19428
289	19430
289	19432
289	19434
288	19436
288	19438
288	19440
288	19442
288	19444
288	19446
287	19448
288	19450
287	19452
287	19454
287	19456
287	19458
287	19460
287	19462
287	19464
287	19466
287	19468
287	19470
287	19472
287	19474
287	19476
287	19478
287	19480
287	19482
287	19484
287	19486
287	19488
287	19490
288	19492
288	19494
288	19496
288	19499
288	19501
288	19503
288	19505
288	19507
288	19509
288	19511
288	19513
288	19515
289	19517
289	19519
289	19521
289	19523
289	19525
289	19527
289	19529
289	19531
290	19533
290	19535
290	19537
290	19539
290	19542
290	19544
291	19546
291	19548
290	19550
291	19552
291	19554
292	19556
292	19558
292	19560
292	19562
292	19564
293	19566
293	19568
293	19570
293	19572
294	19574
294	19576
295	19578
295	19580
296	19582
296	19584
296	19586
297	19588
297	19590
297	19592
297	19594
298	19596
299	19598
299	19600
299	19602
300	19604
300	19606
300	19608
301	19610
301	19612
301	19614
302	19616
302	19618
302	19620
302	19622
302	19624
302	19627
302	19629
303	19631
302	19633
302	19635
302	19637
302	19639
302	19641
302	19643
301	19645
301	19647
301	19649
300	19651
300	19653
299	19655
299	19657
299	19659
298	19661
298	19663
297	19665
297	19667
296	19670
296	19672
295	19674
295	19676
294	19678
294	19680
294	19682
293	19684
293	19686
292	19688
292	19690
292	19692
291	19694
291	19696
290	19698
290	19700
290	19702
290	19704
289	19706
289	19708
289	19710
289	19712
288	19714
288	19716
288	19718
287	19720
287	19722
287	19724
287	19726
287	19728
286	19730
286	19732
286	19734
286	19736
286	19738
286	19740
285	19742
286	19744
285	19746
285	19748
285	19750
285	19752
286	19755
285	19757
285	19759
285	19761
285	19763
285	19765
285	19767
285	19769
285	19771
285	19773
285	19775
285	19777
285	19779
285	19781
285	19783
285	19785
285	19787
285	19789
285	19791
286	19793
286	19795
286	19798
286	19800
286	19802
286	19804
286	19806
286	19808
287	19810
286	19812
286	19814
286	19816
286	19818
287	19820
287	19822
287	19824
287	19826
287	19828
287	19830
287	19832
287	19834
287	19836
288	19838
288	19840
287	19842
287	19844
288	19846
287	19848
287	19850
288	19852
287	19854
288	19856
288	19858
287	19860
288	19862
288	19864
288	19866
288	19868
288	19870
287	19872
288	19874
288	19876
288	19878
288	19880
288	19883
288	19885
288	19887
288	19889
288	19891
288	19893
288	19895
288	19897
288	19899
288	19901
288	19903
288	19905
288	19907
288	19909
288	19911
288	19913
288	19915
288	19917
288	19919
288	19921
288	19923
288	19926
288	19928
288	19930
288	19932
289	19934
289	19936
288	19938
289	19940
288	19942
289	19944
289	19946
289	19948
289	19950
289	19952
289	19954
289	19956
289	19958
289	19960
289	19962
289	19964
289	19966
289	19968
289	19970
289	19972
289	19974
289	19976
289	19978
290	19980
289	19982
289	19984
290	19986
289	19988
289	19990
289	19992
290	19994
290	19996
290	19998
289	20000
289	20002
289	20004
289	20006
290	20008
290	20011
290	20013
290	20015
290	20017
291	20019
291	20021
291	20023
291	20025
291	20027
292	20029
292	20031
293	20033
293	20035
293	20037
294	20039
295	20041
295	20043
295	20045
295	20047
295	20049
296	20051
295	20054
296	20056
296	20058
296	20060
296	20062
296	20064
296	20066
296	20068
296	20070
296	20072
296	20074
296	20076
296	20078
295	20080
295	20082
295	20084
294	20086
294	20088
294	20090
293	20092
293	20094
293	20096
293	20098
292	20100
292	20102
292	20104
292	20106
291	20108
291	20110
291	20112
291	20114
290	20116
290	20118
290	20120
290	20122
290	20124
289	20126
289	20128
289	20130
289	20132
288	20134
288	20136
288	20139
288	20141
288	20143
288	20145
288	20147
288	20149
288	20151
288	20153
288	20155
288	20157
287	20159
287	20161
287	20163
286	20165
285	20167
284	20169
284	20171
283	20173
282	20175
282	20177
283	20179
284	20182
286	20184
288	20186
291	20188
294	20190
297	20192
300	20194
304	20196
307	20198
310	20200
312	20202
314	20204
314	20206
314	20208
313	20210
311	20212
309	20214
307	20216
304	20218
302	20220
300	20222
300	20224
298	20226
297	20228
296	20230
295	20232
295	20234
294	20236
293	20238
292	20240
292	20242
292	20244
292	20246
291	20248
291	20250
290	20252
290	20254
290	20256
290	20258
289	20260
289	20262
289	20264
289	20267
288	20269
288	20271
288	20273
288	20275
288	20277
288	20279
287	20281
288	20283
287	20285
288	20287
287	20289
287	20291
288	20293
287	20295
287	20297
287	20299
287	20301
287	20303
287	20305
287	20307
287	20310
287	20312
287	20314
287	20316
287	20318
288	20320
287	20322
287	20324
288	20326
288	20328
288	20330
288	20332
288	20334
288	20336
288	20338
288	20340
288	20342
288	20344
288	20346
288	20348
288	20350
289	20352
289	20354
289	20356
289	20358
289	20360
289	20362
289	20364
289	20366
290	20368
290	20370
290	20372
290	20374
290	20376
290	20378
290	20380
290	20382
291	20384
291	20386
292	20388
291	20390
291	20392
292	20395
292	20397
292	20399
293	20401
293	20403
293	20405
294	20407
294	20409
295	20411
295	20413
295	20415
295	20417
296	20419
297	20421
297	20423
297	20425
298	20427
298	20429
298	20431
299	20433
299	20435
299	20438
300	20440
300	20442
301	20444
301	20446
302	20448
302	20450
302	20452
302	20454
303	20456
303	20458
303	20460
303	20462
304	20464
304	20466
304	20468
304	20470
304	20472
304	20474
304	20476
303	20478
303	20480
303	20482
303	20484
303	20486
302	20488
301	20490
301	20492
301	20494
301	20496
300	20498
299	20500
299	20502
298	20504
298	20506
297	20508
297	20510
296	20512
296	20514
296	20516
295	20518
294	20520
294	20523
294	20525
293	20527
293	20529
292	20531
292	20533
292	20535
291	20537
291	20539
290	20541
290	20543
290	20545
289	20547
289	20549
289	20551
288	20553
288	20555
288	20557
287	20559
287	20561
287	20563
287	20566
287	20568
286	20570
286	20572
286	20574
286	20576
286	20578
286	20580
285	20582
286	20584
285	20586
285	20588
285	20590
285	20592
285	20594
285	20596
285	20598
285	20600
285	20602
285	20604
285	20606
285	20608
285	20610
285	20612
285	20614
285	20616
285	20618
285	20620
285	20622
285	20624
285	20626
285	20628
286	20630
286	20632
286	20634
286	20636
286	20638
286	20640
286	20642
286	20644
286	20646
286	20648
286	20651
286	20653
287	20655
287	20657
287	20659
287	20661
287	20663
287	20665
287	20667
287	20669
286	20671
287	20673
287	20675
287	20677
287	20679
287	20681
287	20683
288	20685
288	20687
288	20689
288	20691
288	20694
287	20696
287	20698
288	20700
288	20702
288	20704
287	20706
288	20708
288	20710
287	20712
288	20714
288	20716
288	20718
288	20720
288	20722
288	20724
288	20726
288	20728
288	20730
288	20732
288	20734
288	20736
288	20738
288	20740
288	20742
288	20744
288	20746
289	20748
288	20750
288	20752
289	20754
288	20756
289	20758
289	20760
288	20762
289	20764
289	20766
288	20768
289	20770
288	20772
289	20774
289	20776
289	20779
288	20781
288	20783
288	20785
289	20787
288	20789
288	20791
288	20793
288	20795
289	20797
289	20799
289	20801
289	20803
289	20805
289	20807
289	20809
289	20811
289	20813
289	20815
289	20817
289	20819
289	20822
289	20824
289	20826
289	20828
289	20830
290	20832
290	20834
290	20836
290	20838
290	20840
291	20842
291	20844
291	20846
291	20848
292	20850
292	20852
292	20854
293	20856
294	20858
294	20860
295	20862
294	20864
295	20866
295	20868
295	20870
295	20872
295	20874
295	20876
296	20878
295	20880
295	20882
295	20884
296	20886
295	20888
295	20890
295	20892
296	20894
295	20896
295	20898
295	20900
295	20902
295	20904
294	20907
294	20909
293	20911
293	20913
293	20915
293	20917
293	20919
293	20921
292	20923
292	20925
292	20927
291	20929
291	20931
291	20933
291	20935
290	20937
290	20939
290	20941
290	20943
290	20945
290	20947
290	20950
289	20952
289	20954
289	20956
289	20958
289	20960
288	20962
288	20964
288	20966
288	20968
288	20970
288	20972
288	20974
288	20976
287	20978
287	20980
286	20982
285	20984
285	20986
284	20988
283	20990
283	20992
283	20994
284	20996
284	20998
286	21000
289	21002
291	21004
294	21006
298	21008
301	21010
304	21012
307	21014
309	21016
311	21018
312	21020
313	21022
313	21024
312	21026
310	21028
308	21030
306	21032
303	21035
301	21037
299	21039
298	21041
296	21043
296	21045
295	21047
294	21049
293	21051
293	21053
292	21055
292	21057
292	21059
291	21061
291	21063
290	21065
290	21067
290	21069
290	21071
289	21073
289	21075
289	21078
289	21080
289	21082
288	21084
288	21086
288	21088
288	21090
287	21092
288	21094
287	21096
287	21098
288	21100
287	21102
287	21104
287	21106
288	21108
288	21110
288	21112
287	21114
287	21116
287	21118
288	21120
287	21122
287	21124
288	21126
287	21128
287	21130
287	21132
288	21134
288	21136
288	21138
288	21140
288	21142
288	21144
288	21146
288	21148
288	21150
289	21152
288	21154
289	21156
289	21158
289	21160
289	21163
289	21165
289	21167
289	21169
289	21171
289	21173
290	21175
290	21177
290	21179
290	21181
290	21183
291	21185
291	21187
291	21189
291	21191
291	21193
291	21195
292	21197
292	21199
292	21201
292	21203
293	21206
292	21208
293	21210
293	21212
293	21214
294	21216
294	21218
294	21220
295	21222
295	21224
295	21226
296	21228
296	21230
297	21232
297	21234
297	21236
298	21238
298	21240
299	21242
299	21244
300	21246
300	21248
301	21250
300	21252
302	21254
302	21256
302	21258
303	21260
303	21262
303	21264
303	21266
304	21268
304	21270
304	21272
305	21274
305	21276
305	21278
305	21280
305	21282
305	21284
306	21286
306	21288
305	21291
305	21293
305	21295
305	21297
305	21299
304	21301
304	21303
304	21305
303	21307
303	21309
302	21311
301	21313
301	21315
300	21317
300	21319
299	21321
299	21323
298	21325
298	21327
297	21329
297	21331
296	21334
295	21336
295	21338
294	21340
294	21342
293	21344
293	21346
292	21348
292	21350
292	21352
291	21354
290	21356
290	21358
290	21360
289	21362
289	21364
289	21366
288	21368
288	21370
288	21372
288	21374
287	21376
288	21378
287	21380
287	21382
287	21384
286	21386
286	21388
286	21390
286	21392
286	21394
285	21396
286	21398
285	21400
285	21402
285	21404
285	21406
285	21408
285	21410
285	21412
285	21414
285	21416
285	21419
284	21421
285	21423
284	21425
285	21427
284	21429
284	21431
284	21433
285	21435
285	21437
285	21439
285	21441
285	21443
285	21445
285	21447
285	21449
285	21451
285	21453
285	21455
285	21457
286	21459
285	21462
286	21464
286	21466
286	21468
286	21470
286	21472
286	21474
286	21476
286	21478
286	21480
286	21482
286	21484
286	21486
286	21488
286	21490
287	21492
287	21494
287	21496
287	21498
287	21500
287	21502
287	21504
287	21506
287	21508
287	21510
287	21512
287	21514
287	21516
287	21518
287	21520
287	21522
287	21524
287	21526
287	21528
287	21530
287	21532
287	21534
288	21536
287	21538
287	21540
287	21542
287	21544
287	21547
287	21549
288	21551
287	21553
288	21555
288	21557
287	21559
287	21561
287	21563
287	21565
288	21567
288	21569
288	21571
288	21573
287	21575
288	21577
288	21579
288	21581
288	21583
288	21585
288	21587
288	21590
287	21592
288	21594
288	21596
288	21598
288	21600
288	21602
288	21604
288	21606
288	21608
288	21610
288	21612
288	21614
288	21616
288	21618
288	21620
288	21622
288	21624
289	21626
289	21628
288	21630
288	21632
288	21634
288	21636
288	21638
289	21640
289	21642
289	21644
289	21646
289	21648
289	21650
290	21652
290	21654
290	21656
290	21658
290	21660
291	21662
291	21664
291	21666
292	21668
292	21670
293	21672
293	21675
294	21677
294	21679
294	21681
295	21683
295	21685
294	21687
294	21689
294	21691
294	21693
295	21695
295	21697
295	21699
295	21701
295	21703
295	21705
295	21707
295	21709
295	21711
295	21713
294	21715
294	21718
294	21720
294	21722
293	21724
293	21726
293	21728
293	21730
292	21732
292	21734
292	21736
291	21738
291	21740
291	21742
291	21744
291	21746
290	21748
290	21750
290	21752
290	21754
290	21756
289	21758
289	21760
289	21762
289	21764
288	21766
289	21768
289	21770
288	21772
288	21774
288	21776
288	21778
288	21780
288	21782
288	21784
288	21786
288	21788
287	21790
288	21792
287	21794
286	21796
285	21798
284	21800
284	21803
283	21805
283	21807
283	21809
283	21811
285	21813
287	21815
289	21817
292	21819
295	21821
297	21823
302	21825
304	21827
307	21829
309	21831
311	21833
312	21835
312	21837
312	21839
311	21841
308	21843
306	21846
304	21848
302	21850
300	21852
299	21854
298	21856
297	21858
295	21860
295	21862
294	21864
293	21866
293	21868
293	21870
292	21872
292	21874
291	21876
291	21878
291	21880
290	21882
290	21884
290	21886
290	21888
289	21890
289	21892
289	21894
288	21896
289	21898
288	21900
288	21902
288	21904
288	21906
287	21908
288	21910
287	21912
287	21914
287	21916
287	21918
287	21920
287	21922
287	21924
287	21926
287	21928
287	21931
287	21933
287	21935
287	21937
287	21939
287	21941
287	21943
287	21945
287	21947
288	21949
287	21951
287	21953
287	21955
288	21957
288	21959
288	21961
288	21963
288	21965
288	21967
288	21969
288	21971
288	21974
288	21976
288	21978
288	21980
289	21982
289	21984
289	21986
289	21988
289	21990
289	21992
289	21994
289	21996
290	21998
290	22000
290	22002
290	22004
290	22006
291	22008
291	22010
291	22012
291	22014
291	22016
292	22018
292	22020
292	22022
292	22024
292	22026
293	22028
293	22030
293	22032
294	22034
294	22036
294	22038
294	22040
295	22042
295	22044
295	22046
295	22048
296	22050
296	22052
297	22054
297	22056
298	22059
298	22061
299	22063
299	22065
299	22067
300	22069
301	22071
301	22073
301	22075
302	22077
302	22079
302	22081
303	22083
303	22085
303	22087
304	22089
304	22091
304	22093
304	22095
305	22097
305	22099
304	22102
305	22104
304	22106
304	22108
304	22110
304	22112
303	22114
304	22116
303	22118
303	22120
302	22122
302	22124
301	22126
301	22128
300	22130
300	22132
299	22134
299	22136
298	22138
298	22140
297	22142
297	22144
297	22146
296	22148
296	22150
295	22152
294	22154
294	22156
293	22158
293	22160
293	22162
292	22164
291	22166
291	22168
291	22170
290	22172
290	22174
290	22176
289	22178
289	22180
289	22182
289	22184
288	22187
288	22189
288	22191
287	22193
288	22195
287	22197
287	22199
287	22201
286	22203
286	22205
287	22207
286	22209
286	22211
286	22213
286	22215
286	22217
286	22219
285	22221
286	22223
286	22225
286	22227
285	22230
285	22232
285	22234
285	22236
285	22238
285	22240
285	22242
285	22244
285	22246
285	22248
285	22250
285	22252
285	22254
286	22256
286	22258
286	22260
286	22262
286	22264
286	22266
286	22268
286	22270
286	22272
286	22274
286	22276
286	22278
286	22280
286	22282
286	22284
287	22286
286	22288
287	22290
287	22292
287	22294
287	22296
286	22298
287	22300
287	22302
287	22304
287	22306
287	22308
287	22310
287	22312
287	22315
287	22317
287	22319
288	22321
287	22323
288	22325
288	22327
288	22329
288	22331
288	22333
288	22335
288	22337
288	22339
288	22341
288	22343
288	22345
288	22347
288	22349
288	22351
288	22353
287	22355
288	22358
288	22360
288	22362
288	22364
288	22366
288	22368
288	22370
288	22372
288	22374
288	22376
288	22378
288	22380
288	22382
288	22384
288	22386
288	22388
288	22390
288	22392
288	22394
289	22396
288	22398
288	22400
288	22402
289	22404
288	22406
288	22408
289	22410
288	22412
288	22414
289	22416
289	22418
289	22420
289	22422
289	22424
289	22426
288	22428
289	22430
289	22432
289	22434
289	22436
289	22438
289	22440
289	22443
289	22445
289	22447
289	22449
289	22451
289	22453
289	22455
289	22457
289	22459
289	22461
289	22463
289	22465
289	22467
289	22469
289	22471
289	22473
289	22475
289	22477
289	22479
289	22481
289	22483
290	22486
289	22488
290	22490
290	22492
290	22494
291	22496
291	22498
291	22500
292	22502
292	22504
293	22506
293	22508
293	22510
294	22512
294	22514
294	22516
295	22518
295	22520
295	22522
295	22524
295	22526
295	22528
295	22530
295	22532
295	22534
296	22536
296	22538
296	22540
296	22542
296	22544
295	22546
296	22548
296	22550
295	22552
295	22554
295	22556
294	22558
294	22560
294	22562
294	22564
294	22566
293	22568
293	22571
293	22573
292	22575
292	22577
292	22579
292	22581
291	22583
291	22585
291	22587
291	22589
290	22591
290	22593
290	22595
290	22597
290	22599
290	22601
290	22603
290	22605
289	22607
289	22609
289	22611
289	22614
289	22616
288	22618
289	22620
289	22622
288	22624
289	22626
288	22628
288	22630
288	22632
287	22634
287	22636
286	22638
285	22640
285	22642
284	22644
284	22646
284	22648
284	22650
285	22652
286	22654
287	22656
290	22658
293	22660
296	22662
299	22664
302	22666
306	22668
309	22670
311	22672
313	22674
314	22676
314	22678
313	22680
312	22682
310	22684
308	22686
305	22688
304	22690
302	22692
301	22694
300	22696
299	22699
298	22701
297	22703
296	22705
296	22707
295	22709
295	22711
294	22713
293	22715
293	22717
292	22719
293	22721
292	22723
292	22725
291	22727
291	22729
290	22731
290	22733
290	22735
290	22737
289	22739
289	22742
289	22744
289	22746
288	22748
288	22750
288	22752
288	22754
288	22756
288	22758
288	22760
288	22762
287	22764
287	22766
287	22768
287	22770
287	22772
287	22774
287	22776
287	22778
287	22780
287	22782
287	22784
287	22786
287	22788
287	22790
287	22792
287	22794
288	22796
288	22798
288	22800
288	22802
287	22804
288	22806
288	22808
288	22810
288	22812
288	22814
288	22816
288	22818
288	22820
289	22822
289	22824
289	22827
289	22829
289	22831
289	22833
289	22835
289	22837
290	22839
290	22841
290	22843
290	22845
290	22847
290	22849
291	22851
291	22853
291	22855
291	22857
291	22859
291	22861
292	22863
292	22865
292	22867
293	22870
293	22872
293	22874
293	22876
294	22878
294	22880
294	22882
295	22884
295	22886
295	22888
296	22890
296	22892
296	22894
297	22896
297	22898
298	22900
298	22902
298	22904
299	22906
300	22908
300	22910
300	22912
301	22914
301	22916
301	22918
302	22920
302	22922
303	22924
303	22926
303	22928
303	22930
303	22932
303	22934
304	22936
304	22938
304	22940
304	22942
304	22944
304	22946
303	22948
303	22950
303	22952
303	22955
303	22957
303	22959
302	22961
302	22963
301	22965
301	22967
300	22969
300	22971
300	22973
300	22975
299	22977
298	22979
298	22981
297	22983
297	22985
296	22987
296	22989
295	22991
295	22993
295	22995
294	22998
293	23000
293	23002
293	23004
292	23006
292	23008
291	23010
291	23012
291	23014
290	23016
290	23018
290	23020
289	23022
289	23024
289	23026
288	23028
288	23030
288	23032
287	23034
288	23036
287	23038
287	23040
287	23042
287	23044
287	23046
287	23048
287	23050
286	23052
287	23054
286	23056
286	23058
286	23060
286	23062
286	23064
286	23066
286	23068
286	23070
286	23072
286	23074
286	23076
286	23078
286	23080
286	23083
286	23085
286	23087
286	23089
286	23091
286	23093
286	23095
286	23097
286	23099
286	23101
286	23103
286	23105
286	23107
286	23109
286	23111
286	23113
286	23115
286	23117
286	23119
286	23121
286	23123
287	23126
287	23128
287	23130
287	23132
287	23134
287	23136
287	23138
287	23140
287	23142
287	23144
287	23146
287	23148
287	23150
287	23152
287	23154
287	23156
288	23158
287	23160
287	23162
287	23164
287	23166
