⸮⸮⸮⸮⸮⸮⸮⸮⸮⸮⸮⸮⸮⸮⸮⸮⸮⸮⸮⸮⸮⸮⸮⸮⸮⸮⸮⸮⸮⸮⸮⸮⸮294	2
294	4
294	6
293	8
293	10
292	12
292	14
291	16
291	18
291	20
290	22
290	24
290	26
290	28
290	30
289	32
289	34
289	36
289	38
288	40
288	43
288	45
288	47
287	49
286	51
285	53
284	55
282	57
281	59
281	61
280	63
280	65
280	67
281	69
283	71
285	73
287	75
290	77
292	79
295	81
297	83
298	86
299	88
298	90
296	92
294	94
292	96
290	98
288	100
287	102
286	104
285	106
285	108
285	110
284	112
284	114
284	116
284	118
285	120
285	122
285	124
285	126
285	128
286	130
286	132
286	134
286	136
286	138
287	140
287	142
287	144
288	146
288	148
288	150
288	152
288	154
289	156
289	158
290	160
290	162
290	164
290	166
291	168
291	171
291	173
291	175
292	177
292	179
292	181
292	183
293	185
293	187
293	189
294	191
294	193
294	195
294	197
294	199
295	201
295	203
295	205
296	207
296	209
296	211
296	214
296	216
297	218
297	220
297	222
297	224
298	226
298	228
298	230
298	232
298	234
298	236
299	238
299	240
300	242
300	244
300	246
300	248
300	250
300	252
300	254
301	256
301	258
301	260
301	262
301	264
302	266
301	268
301	270
302	272
302	274
302	276
302	278
302	280
302	282
302	284
302	286
302	288
302	290
303	292
303	294
303	296
303	299
303	301
303	303
304	305
304	307
304	309
304	311
304	313
304	315
304	317
304	319
304	321
304	323
304	325
304	327
304	329
304	331
303	333
303	335
303	337
303	339
302	342
302	344
302	346
302	348
302	350
301	352
301	354
301	356
300	358
300	360
300	362
300	364
300	366
299	368
300	370
299	372
299	374
299	376
299	378
299	380
299	382
298	384
298	386
298	388
298	390
298	392
298	394
298	396
297	398
297	400
297	402
297	404
297	406
297	408
297	410
297	412
297	414
297	416
298	418
298	420
298	422
299	424
298	427
299	429
299	431
299	433
300	435
300	437
300	439
300	441
301	443
301	445
301	447
301	449
302	451
302	453
302	455
303	457
303	459
304	461
304	463
304	465
304	467
304	470
304	472
305	474
305	476
304	478
305	480
304	482
304	484
304	486
304	488
304	490
303	492
302	494
302	496
301	498
301	500
300	502
300	504
299	506
299	508
298	510
298	512
297	514
297	516
296	518
296	520
295	522
295	524
294	526
294	528
294	530
293	532
293	534
292	536
292	538
292	540
291	542
291	544
290	546
290	548
290	550
289	552
289	555
289	557
289	559
289	561
288	563
288	565
288	567
287	569
286	571
285	573
284	575
283	577
282	579
281	581
281	583
281	585
282	587
284	589
286	591
288	593
290	595
293	598
295	600
297	602
299	604
299	606
299	608
298	610
296	612
294	614
292	616
290	618
288	620
287	622
286	624
286	626
286	628
286	630
286	632
285	634
285	636
286	638
286	640
286	642
286	644
286	646
286	648
286	650
287	652
287	654
287	656
287	658
287	660
288	662
288	664
288	666
288	668
288	670
288	672
289	674
289	676
290	678
290	680
290	683
290	685
290	687
290	689
291	691
291	693
292	695
292	697
292	699
292	701
292	703
293	705
293	707
294	709
294	711
294	713
294	715
294	717
295	719
294	721
295	723
295	726
296	728
296	730
296	732
296	734
297	736
297	738
297	740
298	742
297	744
297	746
298	748
298	750
298	752
298	754
298	756
299	758
299	760
299	762
299	764
299	766
300	768
300	770
300	772
300	774
300	776
300	778
301	780
301	782
301	784
301	786
301	788
301	790
301	792
302	794
302	796
301	798
302	800
302	802
302	804
302	806
302	808
303	811
303	813
303	815
303	817
303	819
303	821
303	823
303	825
304	827
304	829
304	831
304	833
304	835
304	837
304	839
304	841
304	843
304	845
304	847
304	849
303	851
303	854
303	856
303	858
303	860
302	862
302	864
302	866
301	868
301	870
301	872
301	874
300	876
300	878
300	880
300	882
299	884
299	886
299	888
299	890
299	892
299	894
299	896
299	898
298	900
298	902
298	904
298	906
298	908
298	910
298	912
298	914
298	916
297	918
297	920
297	922
298	924
297	926
297	928
298	930
297	932
297	934
297	936
297	939
297	941
297	943
297	945
298	947
298	949
298	951
299	953
299	955
299	957
300	959
300	961
300	963
300	965
300	967
301	969
301	971
302	973
302	975
302	977
303	979
303	982
303	984
304	986
304	988
304	990
305	992
305	994
305	996
305	998
305	1000
305	1002
304	1004
304	1006
305	1008
304	1010
304	1012
304	1014
303	1016
303	1018
303	1020
302	1022
302	1024
301	1026
301	1028
300	1030
300	1032
299	1034
298	1036
298	1038
297	1040
297	1042
296	1044
296	1046
295	1048
295	1050
294	1052
294	1054
294	1056
293	1058
293	1060
292	1062
292	1064
292	1067
291	1069
291	1071
291	1073
290	1075
290	1077
290	1079
290	1081
290	1083
289	1085
289	1087
289	1089
288	1091
288	1093
288	1095
287	1097
285	1099
284	1101
283	1103
282	1105
281	1107
281	1110
281	1112
282	1114
284	1116
286	1118
288	1120
291	1122
293	1124
296	1126
299	1128
300	1130
301	1132
300	1134
298	1136
297	1138
295	1140
292	1142
291	1144
289	1146
289	1148
288	1150
287	1152
287	1154
287	1156
287	1158
287	1160
287	1162
287	1164
287	1166
287	1168
287	1170
287	1172
287	1174
287	1176
287	1178
288	1180
288	1182
288	1184
288	1186
288	1188
288	1190
289	1192
289	1195
289	1197
289	1199
289	1201
289	1203
289	1205
290	1207
290	1209
290	1211
291	1213
291	1215
291	1217
291	1219
291	1221
292	1223
292	1225
292	1227
293	1229
293	1231
293	1233
294	1235
294	1238
294	1240
295	1242
295	1244
295	1246
295	1248
295	1250
296	1252
296	1254
296	1256
296	1258
296	1260
297	1262
297	1264
297	1266
297	1268
297	1270
298	1272
298	1274
298	1276
298	1278
299	1280
299	1282
299	1284
299	1286
299	1288
299	1290
300	1292
300	1294
300	1296
300	1298
301	1300
300	1302
301	1304
301	1306
301	1308
301	1310
301	1312
302	1314
302	1316
302	1318
302	1320
302	1323
302	1325
302	1327
302	1329
302	1331
302	1333
302	1335
302	1337
302	1339
302	1341
303	1343
303	1345
303	1347
303	1349
303	1351
303	1353
303	1355
304	1357
304	1359
304	1361
304	1363
304	1366
304	1368
303	1370
303	1372
303	1374
303	1376
303	1378
303	1380
303	1382
303	1384
302	1386
302	1388
302	1390
301	1392
301	1394
301	1396
301	1398
301	1400
300	1402
300	1404
300	1406
300	1408
300	1410
300	1412
300	1414
299	1416
299	1418
299	1420
299	1422
299	1424
299	1426
299	1428
299	1430
298	1432
298	1434
298	1436
298	1438
298	1440
298	1442
298	1444
298	1446
297	1448
297	1451
297	1453
297	1455
297	1457
297	1459
297	1461
297	1463
297	1465
297	1467
297	1469
297	1471
297	1473
297	1475
297	1477
298	1479
297	1481
297	1483
298	1485
298	1487
299	1489
299	1491
300	1494
300	1496
300	1498
300	1500
300	1502
301	1504
301	1506
302	1508
302	1510
302	1512
302	1514
302	1516
303	1518
303	1520
304	1522
304	1524
304	1526
304	1528
304	1530
304	1532
304	1534
304	1536
304	1538
304	1540
303	1542
304	1544
303	1546
303	1548
303	1550
302	1552
301	1554
301	1556
300	1558
300	1560
299	1562
299	1564
298	1566
297	1568
297	1570
297	1572
296	1574
296	1576
295	1579
294	1581
294	1583
293	1585
293	1587
293	1589
292	1591
292	1593
291	1595
291	1597
291	1599
290	1601
290	1603
290	1605
290	1607
290	1609
290	1611
289	1613
289	1615
289	1617
288	1619
288	1622
288	1624
288	1626
288	1628
287	1630
286	1632
284	1634
282	1636
282	1638
281	1640
280	1642
280	1644
280	1646
282	1648
283	1650
286	1652
288	1654
290	1656
293	1658
297	1660
299	1662
300	1664
301	1666
301	1668
300	1670
298	1672
296	1674
294	1676
292	1678
291	1680
289	1682
288	1684
288	1686
287	1688
287	1690
287	1692
287	1694
287	1696
287	1698
287	1700
287	1702
287	1704
287	1707
288	1709
288	1711
288	1713
288	1715
288	1717
288	1719
288	1721
288	1723
289	1725
289	1727
289	1729
289	1731
289	1733
290	1735
290	1737
290	1739
290	1741
290	1743
291	1745
291	1747
291	1750
291	1752
291	1754
292	1756
292	1758
292	1760
293	1762
293	1764
293	1766
293	1768
294	1770
294	1772
294	1774
294	1776
294	1778
295	1780
295	1782
295	1784
295	1786
295	1788
296	1790
296	1792
296	1794
297	1796
297	1798
297	1800
297	1802
297	1804
298	1806
298	1808
298	1810
299	1812
298	1814
299	1816
299	1818
299	1820
299	1822
299	1824
300	1826
300	1828
300	1830
300	1832
300	1835
301	1837
301	1839
301	1841
301	1843
301	1845
301	1847
301	1849
301	1851
301	1853
302	1855
301	1857
302	1859
302	1861
302	1863
302	1865
302	1867
302	1869
302	1871
302	1873
303	1875
303	1878
303	1880
303	1882
303	1884
303	1886
304	1888
304	1890
304	1892
304	1894
304	1896
304	1898
304	1900
304	1902
304	1904
304	1906
303	1908
304	1910
303	1912
303	1914
302	1916
302	1918
302	1920
302	1922
302	1924
302	1926
302	1928
302	1930
301	1932
301	1934
301	1936
300	1938
300	1940
300	1942
300	1944
300	1946
299	1948
299	1950
299	1952
299	1954
299	1956
298	1958
298	1960
299	1963
298	1965
298	1967
298	1969
298	1971
298	1973
298	1975
298	1977
298	1979
298	1981
298	1983
297	1985
297	1987
297	1989
297	1991
297	1993
297	1995
297	1997
297	1999
297	2001
297	2003
297	2006
297	2008
297	2010
297	2012
298	2014
298	2016
299	2018
299	2020
299	2022
300	2024
300	2026
300	2028
301	2030
301	2032
301	2034
301	2036
301	2038
302	2040
302	2042
302	2044
302	2046
303	2048
303	2050
303	2052
303	2054
304	2056
304	2058
304	2060
304	2062
304	2064
304	2066
304	2068
304	2070
304	2072
303	2074
303	2076
303	2078
303	2080
302	2082
302	2084
301	2086
300	2088
300	2091
300	2093
299	2095
298	2097
298	2099
297	2101
297	2103
296	2105
296	2107
295	2109
295	2111
294	2113
294	2115
293	2117
293	2119
292	2121
291	2123
291	2125
291	2127
291	2129
290	2131
290	2134
289	2136
289	2138
289	2140
289	2142
289	2144
288	2146
288	2148
288	2150
287	2152
287	2154
287	2156
286	2158
285	2160
284	2162
282	2164
281	2166
280	2168
279	2170
279	2172
279	2174
279	2176
280	2178
282	2180
284	2182
287	2184
290	2186
293	2188
295	2190
298	2192
300	2194
300	2196
300	2198
298	2200
297	2202
294	2204
292	2206
291	2208
289	2210
288	2212
288	2214
287	2216
287	2219
287	2221
287	2223
287	2225
287	2227
287	2229
287	2231
287	2233
287	2235
287	2237
287	2239
287	2241
287	2243
287	2245
288	2247
288	2249
288	2251
288	2253
288	2255
288	2257
289	2259
289	2262
289	2264
289	2266
289	2268
290	2270
290	2272
290	2274
290	2276
291	2278
291	2280
291	2282
291	2284
292	2286
292	2288
292	2290
293	2292
293	2294
293	2296
294	2298
293	2300
294	2302
294	2304
294	2306
294	2308
294	2310
295	2312
295	2314
295	2316
295	2318
296	2320
296	2322
296	2324
296	2326
297	2328
297	2330
297	2332
297	2334
297	2336
298	2338
298	2340
299	2342
299	2344
299	2347
299	2349
299	2351
300	2353
300	2355
301	2357
301	2359
301	2361
301	2363
302	2365
302	2367
302	2369
302	2371
303	2373
303	2375
303	2377
303	2379
303	2381
303	2383
303	2385
303	2387
304	2390
303	2392
304	2394
304	2396
304	2398
304	2400
304	2402
304	2404
305	2406
305	2408
305	2410
305	2412
306	2414
306	2416
306	2418
306	2420
306	2422
306	2424
306	2426
306	2428
306	2430
306	2432
306	2434
306	2436
306	2438
305	2440
305	2442
305	2444
304	2446
304	2448
304	2450
304	2452
303	2454
303	2456
303	2458
302	2460
302	2462
302	2464
302	2466
301	2468
301	2470
301	2472
301	2475
301	2477
300	2479
300	2481
300	2483
300	2485
300	2487
299	2489
299	2491
299	2493
299	2495
299	2497
299	2499
298	2501
298	2503
298	2505
298	2507
298	2509
298	2511
298	2513
298	2515
298	2518
297	2520
297	2522
297	2524
297	2526
296	2528
297	2530
296	2532
296	2534
297	2536
297	2538
297	2540
297	2542
297	2544
297	2546
298	2548
298	2550
298	2552
298	2554
298	2556
299	2558
299	2560
299	2562
299	2564
299	2566
300	2568
300	2570
300	2572
301	2574
301	2576
302	2578
301	2580
302	2582
302	2584
302	2586
302	2588
302	2590
302	2592
303	2594
302	2596
302	2598
302	2600
302	2603
302	2605
301	2607
300	2609
300	2611
300	2613
299	2615
299	2617
298	2619
297	2621
297	2623
296	2625
296	2627
295	2629
294	2631
294	2633
293	2635
293	2637
293	2639
292	2641
291	2643
291	2646
290	2648
290	2650
290	2652
289	2654
289	2656
288	2658
288	2660
288	2662
288	2664
287	2666
287	2668
287	2670
287	2672
286	2674
286	2676
286	2678
286	2680
286	2682
285	2684
285	2686
284	2688
283	2690
282	2692
281	2694
280	2696
279	2698
278	2700
277	2702
277	2704
277	2706
279	2708
281	2710
284	2712
287	2714
289	2716
293	2718
296	2720
298	2722
299	2724
300	2726
299	2728
298	2731
295	2733
293	2735
291	2737
289	2739
288	2741
288	2743
288	2745
287	2747
287	2749
287	2751
287	2753
287	2755
287	2757
287	2759
287	2761
287	2763
287	2765
287	2767
287	2769
287	2771
287	2774
288	2776
288	2778
288	2780
288	2782
288	2784
289	2786
289	2788
289	2790
290	2792
290	2794
290	2796
290	2798
290	2800
291	2802
291	2804
291	2806
291	2808
291	2810
292	2812
292	2814
292	2816
292	2818
292	2820
293	2822
293	2824
293	2826
294	2828
294	2830
294	2832
294	2834
294	2836
295	2838
295	2840
295	2842
296	2844
296	2846
296	2848
296	2850
296	2852
296	2854
297	2856
297	2859
297	2861
297	2863
298	2865
298	2867
298	2869
298	2871
299	2873
299	2875
300	2877
299	2879
300	2881
300	2883
300	2885
300	2887
301	2889
301	2891
301	2893
302	2895
301	2897
302	2899
302	2902
302	2904
302	2906
302	2908
302	2910
302	2912
302	2914
303	2916
303	2918
303	2920
303	2922
303	2924
303	2926
303	2928
303	2930
304	2932
304	2934
304	2936
304	2938
304	2940
304	2942
305	2944
305	2946
305	2948
305	2950
305	2952
305	2954
305	2956
305	2958
305	2960
305	2962
305	2964
305	2966
304	2968
304	2970
304	2972
304	2974
304	2976
303	2978
303	2980
303	2982
302	2984
302	2987
302	2989
301	2991
301	2993
301	2995
301	2997
300	2999
300	3001
300	3003
300	3005
300	3007
300	3009
299	3011
299	3013
299	3015
299	3017
299	3019
298	3021
298	3023
299	3025
298	3027
298	3030
298	3032
298	3034
298	3036
298	3038
298	3040
298	3042
297	3044
297	3046
298	3048
298	3050
298	3052
298	3054
298	3056
298	3058
298	3060
298	3062
299	3064
299	3066
300	3068
300	3070
300	3072
300	3074
301	3076
301	3078
301	3080
301	3082
302	3084
302	3086
302	3088
303	3090
303	3092
303	3094
304	3096
304	3098
305	3100
305	3102
305	3104
305	3106
305	3108
305	3110
305	3112
305	3115
305	3117
305	3119
305	3121
305	3123
305	3125
304	3127
304	3129
303	3131
303	3133
302	3135
302	3137
301	3139
300	3141
300	3143
300	3145
299	3147
298	3149
297	3151
296	3153
296	3155
295	3158
295	3160
294	3162
294	3164
293	3166
293	3168
292	3170
291	3172
291	3174
291	3176
291	3178
290	3180
290	3182
289	3184
289	3186
289	3188
288	3190
288	3192
288	3194
288	3196
287	3198
287	3200
287	3202
287	3204
286	3206
286	3208
285	3210
284	3212
282	3214
281	3216
279	3218
278	3220
277	3222
277	3224
277	3226
278	3228
280	3230
282	3232
284	3234
287	3236
290	3238
293	3240
295	3243
297	3245
297	3247
296	3249
294	3251
293	3253
290	3255
288	3257
286	3259
285	3261
284	3263
283	3265
283	3267
283	3269
283	3271
283	3273
283	3275
284	3277
284	3279
284	3281
284	3283
284	3286
285	3288
284	3290
285	3292
285	3294
286	3296
286	3298
286	3300
286	3302
286	3304
286	3306
287	3308
287	3310
287	3312
288	3314
288	3316
288	3318
289	3320
289	3322
289	3324
290	3326
290	3328
290	3330
290	3332
291	3334
291	3336
291	3338
291	3340
292	3342
293	3344
292	3346
293	3348
293	3350
293	3352
294	3354
294	3356
294	3358
295	3360
295	3362
295	3364
295	3366
295	3368
296	3371
296	3373
296	3375
296	3377
296	3379
297	3381
297	3383
297	3385
298	3387
298	3389
298	3391
298	3393
299	3395
299	3397
299	3399
299	3401
299	3403
300	3405
300	3407
300	3409
301	3411
301	3414
301	3416
301	3418
301	3420
301	3422
302	3424
302	3426
302	3428
302	3430
302	3432
302	3434
302	3436
303	3438
303	3440
303	3442
304	3444
304	3446
303	3448
304	3450
304	3452
304	3454
304	3456
304	3458
304	3460
304	3462
305	3464
305	3466
305	3468
305	3470
305	3472
305	3474
305	3476
305	3478
305	3480
305	3482
304	3484
304	3486
304	3488
304	3490
304	3492
303	3494
303	3496
303	3499
302	3501
302	3503
301	3505
301	3507
301	3509
300	3511
300	3513
300	3515
299	3517
299	3519
299	3521
298	3523
298	3525
298	3527
298	3529
298	3531
297	3533
297	3535
297	3537
297	3539
297	3542
297	3544
297	3546
297	3548
296	3550
296	3552
296	3554
296	3556
296	3558
296	3560
296	3562
296	3564
296	3566
296	3568
296	3570
296	3572
297	3574
297	3576
298	3578
298	3580
298	3582
299	3584
298	3586
298	3588
299	3590
299	3592
300	3594
300	3596
300	3598
301	3600
301	3602
302	3604
302	3606
302	3608
303	3610
303	3612
303	3614
304	3616
304	3618
304	3620
304	3622
304	3624
304	3627
304	3629
304	3631
304	3633
304	3635
303	3637
304	3639
303	3641
302	3643
302	3645
302	3647
301	3649
301	3651
300	3653
300	3655
299	3657
298	3659
298	3661
297	3663
297	3665
296	3667
295	3670
295	3672
294	3674
294	3676
294	3678
293	3680
292	3682
292	3684
292	3686
291	3688
292	3690
291	3692
291	3694
291	3696
290	3698
290	3700
289	3702
289	3704
289	3706
288	3708
288	3710
288	3712
288	3714
287	3716
287	3718
286	3720
285	3722
283	3724
283	3726
281	3728
280	3730
279	3732
278	3734
278	3736
279	3738
281	3740
284	3742
285	3744
288	3746
290	3748
292	3750
294	3752
295	3755
296	3757
295	3759
294	3761
292	3763
290	3765
287	3767
285	3769
283	3771
282	3773
281	3775
280	3777
280	3779
280	3781
280	3783
280	3785
281	3787
281	3789
281	3791
281	3793
282	3795
282	3798
283	3800
283	3802
283	3804
284	3806
284	3808
285	3810
285	3812
286	3814
286	3816
286	3818
287	3820
287	3822
287	3824
288	3826
288	3828
289	3830
289	3832
290	3834
290	3836
290	3838
291	3840
291	3842
291	3844
292	3846
292	3848
293	3850
293	3852
293	3854
293	3856
294	3858
294	3860
295	3862
295	3864
295	3866
296	3868
296	3870
297	3872
297	3874
297	3876
298	3878
298	3880
298	3883
299	3885
299	3887
299	3889
299	3891
300	3893
300	3895
300	3897
301	3899
301	3901
301	3903
301	3905
302	3907
302	3909
302	3911
302	3913
302	3915
303	3917
302	3919
303	3921
303	3923
303	3926
304	3928
304	3930
304	3932
304	3934
304	3936
304	3938
304	3940
305	3942
305	3944
305	3946
305	3948
305	3950
305	3952
305	3954
306	3956
306	3958
306	3960
306	3962
306	3964
307	3966
307	3968
307	3970
307	3972
307	3974
308	3976
308	3978
308	3980
308	3982
308	3984
308	3986
308	3988
307	3990
307	3992
307	3994
307	3996
307	3998
306	4000
306	4002
306	4004
305	4006
305	4008
304	4011
304	4013
304	4015
303	4017
303	4019
302	4021
302	4023
302	4025
301	4027
301	4029
301	4031
301	4033
300	4035
300	4037
299	4039
299	4041
299	4043
299	4045
299	4047
299	4049
298	4051
298	4054
298	4056
298	4058
298	4060
297	4062
298	4064
297	4066
298	4068
298	4070
298	4072
298	4074
298	4076
298	4078
299	4080
299	4082
299	4084
300	4086
300	4088
300	4090
301	4092
301	4094
301	4096
301	4098
302	4100
302	4102
302	4104
303	4106
303	4108
303	4110
304	4112
304	4114
304	4116
304	4118
304	4120
304	4122
304	4124
304	4126
304	4128
304	4130
304	4132
304	4134
303	4136
303	4139
303	4141
302	4143
302	4145
301	4147
301	4149
300	4151
299	4153
299	4155
298	4157
298	4159
297	4161
297	4163
296	4165
296	4167
295	4169
294	4171
294	4173
294	4175
293	4177
293	4179
292	4182
292	4184
292	4186
291	4188
291	4190
290	4192
290	4194
290	4196
290	4198
289	4200
289	4202
288	4204
289	4206
288	4208
288	4210
288	4212
288	4214
287	4216
286	4218
286	4220
284	4222
283	4224
282	4226
281	4228
280	4230
279	4232
278	4234
279	4236
279	4238
281	4240
283	4242
284	4244
287	4246
289	4248
291	4250
293	4252
295	4254
294	4256
295	4258
293	4260
291	4262
289	4264
287	4267
285	4269
283	4271
282	4273
281	4275
281	4277
281	4279
281	4281
281	4283
281	4285
282	4287
282	4289
282	4291
282	4293
283	4295
283	4297
283	4299
283	4301
283	4303
284	4305
284	4307
285	4310
285	4312
285	4314
286	4316
286	4318
286	4320
287	4322
287	4324
288	4326
288	4328
289	4330
289	4332
289	4334
290	4336
290	4338
291	4340
291	4342
291	4344
291	4346
292	4348
292	4350
292	4352
292	4354
293	4356
293	4358
293	4360
294	4362
294	4364
294	4366
295	4368
295	4370
295	4372
295	4374
295	4376
296	4378
296	4380
296	4382
297	4384
297	4386
297	4388
297	4390
297	4392
298	4395
298	4397
298	4399
299	4401
299	4403
299	4405
299	4407
299	4409
300	4411
300	4413
300	4415
300	4417
300	4419
300	4421
301	4423
301	4425
301	4427
301	4429
301	4431
302	4433
302	4435
302	4438
303	4440
302	4442
303	4444
303	4446
303	4448
303	4450
303	4452
303	4454
303	4456
303	4458
303	4460
304	4462
304	4464
304	4466
304	4468
304	4470
304	4472
304	4474
304	4476
305	4478
305	4480
305	4482
305	4484
305	4486
305	4488
304	4490
305	4492
304	4494
304	4496
304	4498
304	4500
304	4502
303	4504
303	4506
303	4508
303	4510
302	4512
302	4514
301	4516
301	4518
301	4520
301	4523
301	4525
300	4527
300	4529
300	4531
299	4533
299	4535
299	4537
299	4539
299	4541
299	4543
298	4545
298	4547
298	4549
298	4551
298	4553
298	4555
298	4557
298	4559
298	4561
299	4563
299	4566
299	4568
299	4570
299	4572
300	4574
300	4576
300	4578
301	4580
301	4582
301	4584
301	4586
302	4588
302	4590
302	4592
303	4594
303	4596
304	4598
304	4600
304	4602
304	4604
304	4606
305	4608
305	4610
305	4612
305	4614
305	4616
305	4618
305	4620
305	4622
305	4624
305	4626
305	4628
305	4630
304	4632
304	4634
303	4636
303	4638
303	4640
302	4642
302	4644
301	4646
300	4648
300	4651
299	4653
299	4655
298	4657
297	4659
297	4661
297	4663
296	4665
296	4667
295	4669
295	4671
294	4673
294	4675
293	4677
293	4679
293	4681
293	4683
292	4685
292	4687
291	4689
291	4691
291	4694
291	4696
290	4698
290	4700
290	4702
289	4704
289	4706
289	4708
288	4710
287	4712
286	4714
285	4716
283	4718
282	4720
281	4722
280	4724
279	4726
280	4728
281	4730
282	4732
284	4734
285	4736
287	4738
289	4740
291	4742
293	4744
294	4746
294	4748
294	4750
292	4752
291	4754
288	4756
286	4758
284	4760
283	4762
282	4764
281	4766
281	4768
281	4770
281	4772
281	4774
281	4776
281	4779
282	4781
282	4783
282	4785
283	4787
283	4789
284	4791
284	4793
285	4795
285	4797
286	4799
286	4801
286	4803
286	4805
287	4807
287	4809
287	4811
288	4813
288	4815
288	4817
288	4819
288	4822
289	4824
290	4826
290	4828
290	4830
291	4832
291	4834
292	4836
292	4838
292	4840
293	4842
293	4844
293	4846
294	4848
294	4850
294	4852
295	4854
295	4856
296	4858
296	4860
296	4862
296	4864
296	4866
297	4868
297	4870
298	4872
298	4874
298	4876
298	4878
299	4880
299	4882
299	4884
299	4886
299	4888
299	4890
300	4892
300	4894
300	4896
300	4898
301	4900
300	4902
301	4904
300	4907
301	4909
301	4911
301	4913
301	4915
302	4917
301	4919
301	4921
302	4923
302	4925
302	4927
302	4929
302	4931
302	4933
302	4935
302	4937
302	4939
302	4941
302	4943
303	4945
303	4947
303	4950
303	4952
303	4954
303	4956
303	4958
303	4960
304	4962
304	4964
304	4966
304	4968
304	4970
304	4972
304	4974
304	4976
304	4978
304	4980
304	4982
304	4984
303	4986
303	4988
303	4990
303	4992
302	4994
302	4996
302	4998
302	5000
301	5002
301	5004
301	5006
301	5008
300	5010
300	5012
300	5014
299	5016
299	5018
299	5020
298	5022
298	5024
298	5026
298	5028
298	5030
298	5032
298	5035
297	5037
297	5039
298	5041
298	5043
298	5045
298	5047
298	5049
298	5051
299	5053
299	5055
299	5057
300	5059
300	5061
300	5063
300	5065
300	5067
301	5069
301	5071
301	5073
302	5075
302	5078
302	5080
303	5082
303	5084
303	5086
303	5088
304	5090
304	5092
304	5094
304	5096
305	5098
305	5100
305	5102
305	5104
304	5106
304	5108
304	5110
305	5112
304	5114
304	5116
304	5118
303	5120
302	5122
302	5124
301	5126
301	5128
301	5130
300	5132
300	5134
299	5136
298	5138
298	5140
297	5142
297	5144
296	5146
296	5148
295	5150
294	5152
294	5154
293	5156
293	5158
292	5160
292	5163
292	5165
291	5167
291	5169
290	5171
290	5173
290	5175
289	5177
289	5179
289	5181
289	5183
288	5185
288	5187
288	5189
288	5191
287	5193
287	5195
286	5197
285	5199
284	5201
282	5203
281	5206
281	5208
280	5210
279	5212
280	5214
281	5216
283	5218
284	5220
286	5222
288	5224
290	5226
292	5228
293	5230
293	5232
293	5234
292	5236
291	5238
289	5240
286	5242
285	5244
283	5246
283	5248
281	5250
281	5252
280	5254
280	5256
280	5258
281	5260
281	5262
281	5264
282	5266
282	5268
282	5270
282	5272
283	5274
283	5276
283	5278
284	5280
284	5282
284	5284
285	5286
285	5288
285	5291
286	5293
286	5295
286	5297
287	5299
287	5301
288	5303
288	5305
288	5307
288	5309
289	5311
289	5313
290	5315
290	5317
290	5319
290	5321
290	5323
291	5325
291	5327
292	5329
292	5331
293	5334
293	5336
293	5338
293	5340
293	5342
293	5344
294	5346
294	5348
295	5350
295	5352
295	5354
295	5356
295	5358
296	5360
296	5362
296	5364
296	5366
296	5368
297	5370
297	5372
297	5374
297	5376
297	5378
297	5380
298	5382
298	5384
298	5386
298	5388
298	5390
298	5392
299	5394
299	5396
299	5398
300	5400
300	5402
300	5404
300	5406
300	5408
300	5410
300	5412
300	5414
301	5416
301	5419
301	5421
302	5423
302	5425
301	5427
302	5429
302	5431
302	5433
302	5435
302	5437
303	5439
303	5441
303	5443
303	5445
304	5447
304	5449
304	5451
304	5453
304	5455
304	5457
304	5459
304	5462
304	5464
304	5466
304	5468
304	5470
303	5472
303	5474
303	5476
303	5478
303	5480
303	5482
303	5484
302	5486
302	5488
302	5490
302	5492
302	5494
301	5496
301	5498
301	5500
301	5502
301	5504
300	5506
300	5508
300	5510
300	5512
300	5514
299	5516
299	5518
299	5520
299	5522
300	5524
300	5526
300	5528
300	5530
301	5532
301	5534
301	5536
301	5538
301	5540
302	5542
302	5544
302	5547
303	5549
303	5551
303	5553
304	5555
304	5557
304	5559
305	5561
305	5563
305	5565
305	5567
306	5569
306	5571
306	5573
306	5575
306	5577
306	5579
307	5581
306	5583
306	5585
306	5587
306	5590
306	5592
306	5594
305	5596
305	5598
305	5600
304	5602
304	5604
303	5606
303	5608
302	5610
302	5612
301	5614
300	5616
300	5618
299	5620
299	5622
298	5624
297	5626
297	5628
297	5630
296	5632
296	5634
295	5636
294	5638
294	5640
294	5642
293	5644
293	5646
292	5648
292	5650
292	5652
291	5654
291	5656
291	5658
290	5660
291	5662
290	5664
290	5666
290	5668
290	5670
289	5672
289	5675
288	5677
288	5679
287	5681
285	5683
284	5685
282	5687
281	5689
281	5691
280	5693
281	5695
282	5697
283	5699
284	5701
286	5703
288	5705
290	5707
292	5709
293	5711
294	5713
293	5715
293	5718
292	5720
290	5722
288	5724
286	5726
285	5728
283	5730
282	5732
282	5734
282	5736
281	5738
282	5740
282	5742
282	5744
283	5746
283	5748
283	5750
284	5752
284	5754
284	5756
284	5758
285	5760
285	5762
285	5764
286	5766
286	5768
286	5770
287	5772
287	5774
287	5776
287	5778
288	5780
288	5782
288	5784
289	5786
289	5788
289	5790
290	5792
290	5794
290	5796
291	5798
291	5800
291	5803
291	5805
291	5807
292	5809
292	5811
292	5813
293	5815
293	5817
293	5819
293	5821
293	5823
294	5825
294	5827
294	5829
295	5831
295	5833
295	5835
295	5837
296	5839
296	5841
296	5843
297	5846
297	5848
297	5850
297	5852
297	5854
297	5856
298	5858
298	5860
298	5862
298	5864
298	5866
299	5868
299	5870
299	5872
299	5874
299	5876
300	5878
300	5880
300	5882
300	5884
300	5886
300	5888
300	5890
300	5892
301	5894
301	5896
301	5898
301	5900
301	5902
301	5904
301	5906
302	5908
302	5910
302	5912
302	5914
302	5916
303	5918
303	5920
303	5922
303	5924
303	5926
304	5928
304	5931
304	5933
305	5935
305	5937
305	5939
305	5941
305	5943
305	5945
305	5947
304	5949
305	5951
304	5953
304	5955
304	5957
304	5959
304	5961
303	5963
303	5965
303	5967
303	5969
302	5971
302	5974
302	5976
301	5978
301	5980
301	5982
301	5984
301	5986
300	5988
300	5990
299	5992
300	5994
299	5996
299	5998
299	6000
299	6002
299	6004
299	6006
299	6008
300	6010
300	6012
300	6014
301	6016
300	6018
301	6020
301	6022
301	6024
302	6026
302	6028
302	6030
303	6032
303	6034
303	6036
303	6038
304	6040
304	6042
304	6044
305	6046
305	6048
306	6050
306	6052
306	6054
306	6056
306	6059
306	6061
306	6063
306	6065
306	6067
306	6069
306	6071
306	6073
306	6075
305	6077
305	6079
305	6081
305	6083
304	6085
304	6087
303	6089
303	6091
302	6093
302	6095
301	6097
301	6099
300	6102
300	6104
299	6106
298	6108
298	6110
297	6112
297	6114
297	6116
296	6118
296	6120
295	6122
295	6124
294	6126
294	6128
294	6130
293	6132
293	6134
293	6136
292	6138
292	6140
292	6142
291	6144
291	6146
291	6148
291	6150
291	6152
290	6154
290	6156
290	6158
289	6160
288	6162
287	6164
286	6166
285	6168
283	6170
282	6172
282	6174
281	6176
282	6178
283	6180
285	6182
287	6184
288	6187
290	6189
292	6191
294	6193
295	6195
295	6197
295	6199
294	6201
293	6203
291	6205
288	6207
286	6209
285	6211
284	6213
284	6215
284	6217
284	6219
284	6221
284	6223
284	6225
284	6227
284	6230
285	6232
285	6234
285	6236
285	6238
286	6240
286	6242
287	6244
287	6246
287	6248
288	6250
287	6252
288	6254
288	6256
289	6258
289	6260
289	6262
289	6264
290	6266
290	6268
290	6270
290	6272
290	6274
291	6276
291	6278
292	6280
292	6282
292	6284
292	6286
293	6288
293	6290
294	6292
293	6294
294	6296
294	6298
294	6300
294	6302
295	6304
295	6306
295	6308
295	6310
295	6312
296	6315
296	6317
296	6319
296	6321
297	6323
297	6325
297	6327
297	6329
298	6331
298	6333
298	6335
298	6337
298	6339
298	6341
299	6343
299	6345
300	6347
299	6349
300	6351
300	6353
300	6355
300	6358
301	6360
300	6362
301	6364
301	6366
301	6368
301	6370
301	6372
301	6374
301	6376
301	6378
301	6380
301	6382
301	6384
301	6386
301	6388
302	6390
302	6392
302	6394
302	6396
302	6398
302	6400
302	6402
302	6404
303	6406
303	6408
303	6410
303	6412
303	6414
304	6416
304	6418
304	6420
304	6422
304	6424
304	6426
304	6428
304	6430
304	6432
304	6434
304	6436
303	6438
303	6440
303	6443
303	6445
303	6447
303	6449
303	6451
302	6453
302	6455
302	6457
301	6459
301	6461
301	6463
301	6465
300	6467
300	6469
300	6471
300	6473
299	6475
299	6477
299	6479
299	6481
299	6483
299	6486
298	6488
299	6490
298	6492
299	6494
299	6496
299	6498
299	6500
299	6502
300	6504
300	6506
301	6508
301	6510
301	6512
301	6514
302	6516
302	6518
302	6520
303	6522
303	6524
303	6526
304	6528
304	6530
305	6532
304	6534
305	6536
305	6538
306	6540
306	6542
306	6544
306	6546
307	6548
307	6550
307	6552
306	6554
306	6556
306	6558
306	6560
306	6562
306	6564
305	6566
305	6568
305	6571
304	6573
304	6575
303	6577
302	6579
302	6581
302	6583
301	6585
301	6587
300	6589
299	6591
299	6593
298	6595
297	6597
297	6599
296	6601
296	6603
295	6605
295	6607
295	6609
294	6611
294	6614
294	6616
293	6618
293	6620
292	6622
292	6624
292	6626
292	6628
291	6630
291	6632
291	6634
291	6636
290	6638
290	6640
290	6642
290	6644
289	6646
289	6648
287	6650
286	6652
285	6654
284	6656
283	6658
282	6660
281	6662
281	6664
281	6666
283	6668
284	6670
286	6672
288	6674
290	6676
292	6678
294	6680
296	6682
296	6684
296	6686
295	6688
294	6690
292	6692
290	6694
288	6696
287	6699
286	6701
285	6703
285	6705
285	6707
285	6709
285	6711
285	6713
286	6715
286	6717
286	6719
286	6721
287	6723
287	6725
287	6727
287	6729
287	6731
288	6733
288	6735
288	6737
288	6739
288	6742
288	6744
289	6746
289	6748
289	6750
290	6752
290	6754
290	6756
290	6758
290	6760
291	6762
291	6764
291	6766
292	6768
292	6770
292	6772
292	6774
293	6776
293	6778
293	6780
294	6782
294	6784
294	6786
294	6788
294	6790
295	6792
295	6794
295	6796
296	6798
296	6800
296	6802
296	6804
297	6806
297	6808
297	6810
297	6812
297	6814
298	6816
297	6818
298	6820
298	6822
298	6824
299	6827
299	6829
299	6831
299	6833
299	6835
299	6837
299	6839
300	6841
300	6843
300	6845
300	6847
300	6849
300	6851
300	6853
301	6855
300	6857
300	6859
300	6861
301	6863
301	6865
301	6867
301	6870
301	6872
301	6874
302	6876
301	6878
302	6880
302	6882
302	6884
302	6886
302	6888
302	6890
303	6892
303	6894
303	6896
303	6898
303	6900
303	6902
303	6904
303	6906
304	6908
304	6910
304	6912
304	6914
304	6916
304	6918
303	6920
303	6922
303	6924
303	6926
303	6928
303	6930
302	6932
302	6934
302	6936
302	6938
301	6940
301	6942
300	6944
300	6946
300	6948
300	6950
300	6952
299	6955
299	6957
299	6959
299	6961
299	6963
299	6965
299	6967
299	6969
298	6971
298	6973
298	6975
298	6977
298	6979
298	6981
298	6983
298	6985
298	6987
297	6989
297	6991
297	6993
298	6995
298	6998
298	7000
298	7002
298	7004
298	7006
298	7008
299	7010
299	7012
300	7014
300	7016
301	7018
301	7020
301	7022
302	7024
302	7026
303	7028
303	7030
303	7032
304	7034
304	7036
304	7038
304	7040
305	7042
305	7044
305	7046
306	7048
306	7050
306	7052
306	7054
306	7056
306	7058
306	7060
306	7062
306	7064
306	7066
306	7068
306	7070
306	7072
305	7074
305	7076
304	7078
304	7080
304	7083
303	7085
303	7087
302	7089
301	7091
301	7093
300	7095
300	7097
299	7099
299	7101
299	7103
298	7105
297	7107
297	7109
296	7111
296	7113
296	7115
295	7117
294	7119
294	7121
293	7123
293	7126
293	7128
293	7130
292	7132
292	7134
292	7136
291	7138
291	7140
291	7142
291	7144
290	7146
290	7148
290	7150
290	7152
289	7154
288	7156
287	7158
286	7160
284	7162
283	7164
282	7166
282	7168
282	7170
282	7172
283	7174
285	7176
287	7178
289	7180
292	7182
295	7184
297	7186
299	7188
300	7190
300	7192
299	7194
298	7196
296	7198
294	7200
292	7202
290	7204
289	7206
288	7208
287	7211
287	7213
287	7215
287	7217
287	7219
287	7221
287	7223
287	7225
287	7227
288	7229
288	7231
288	7233
288	7235
288	7237
288	7239
288	7241
288	7243
289	7245
289	7247
289	7249
289	7251
289	7254
290	7256
289	7258
290	7260
290	7262
290	7264
290	7266
291	7268
291	7270
291	7272
291	7274
292	7276
292	7278
292	7280
292	7282
293	7284
293	7286
293	7288
293	7290
293	7292
294	7294
294	7296
294	7298
294	7300
294	7302
295	7304
294	7306
295	7308
295	7310
295	7312
295	7314
295	7316
296	7318
296	7320
296	7322
296	7324
296	7326
296	7328
297	7330
297	7332
297	7334
297	7336
297	7339
297	7341
298	7343
298	7345
298	7347
298	7349
299	7351
299	7353
299	7355
299	7357
299	7359
299	7361
300	7363
300	7365
300	7367
300	7369
300	7371
300	7373
300	7375
300	7377
300	7379
301	7382
301	7384
301	7386
301	7388
301	7390
301	7392
301	7394
301	7396
302	7398
302	7400
302	7402
302	7404
302	7406
302	7408
302	7410
302	7412
303	7414
303	7416
303	7418
303	7420
302	7422
302	7424
302	7426
303	7428
302	7430
302	7432
302	7434
302	7436
301	7438
302	7440
301	7442
301	7444
300	7446
300	7448
300	7450
300	7452
299	7454
299	7456
298	7458
298	7460
298	7462
298	7464
297	7467
297	7469
297	7471
297	7473
296	7475
296	7477
296	7479
296	7481
296	7483
296	7485
296	7487
296	7489
296	7491
296	7493
296	7495
296	7497
296	7499
296	7501
296	7503
296	7505
296	7507
295	7510
296	7512
296	7514
296	7516
296	7518
296	7520
296	7522
296	7524
296	7526
296	7528
296	7530
296	7532
296	7534
296	7536
296	7538
296	7540
296	7542
296	7544
296	7546
296	7548
296	7550
296	7552
296	7554
296	7556
296	7558
296	7560
296	7562
296	7564
296	7566
296	7568
296	7570
296	7572
296	7574
297	7576
297	7578
298	7580
298	7582
299	7584
299	7586
299	7588
299	7590
300	7592
300	7595
300	7597
301	7599
301	7601
302	7603
302	7605
302	7607
303	7609
303	7611
303	7613
304	7615
304	7617
304	7619
304	7621
304	7623
304	7625
304	7627
304	7629
304	7631
304	7633
304	7635
304	7638
303	7640
302	7642
302	7644
302	7646
301	7648
301	7650
301	7652
300	7654
299	7656
299	7658
298	7660
298	7662
297	7664
297	7666
296	7668
296	7670
295	7672
295	7674
295	7676
294	7678
294	7680
293	7682
293	7684
293	7686
293	7688
292	7690
292	7692
292	7694
292	7696
291	7698
291	7700
291	7702
291	7704
291	7706
290	7708
290	7710
290	7712
290	7714
290	7716
289	7718
288	7720
288	7723
286	7725
285	7727
285	7729
284	7731
283	7733
284	7735
285	7737
287	7739
288	7741
291	7743
294	7745
297	7747
300	7749
303	7751
306	7753
307	7755
307	7757
306	7759
304	7761
302	7763
300	7766
298	7768
296	7770
294	7772
293	7774
292	7776
292	7778
292	7780
291	7782
291	7784
291	7786
291	7788
291	7790
291	7792
291	7794
291	7796
290	7798
291	7800
291	7802
291	7804
291	7806
291	7808
291	7810
291	7812
291	7814
291	7816
291	7818
292	7820
292	7822
292	7824
292	7826
292	7828
292	7830
293	7832
293	7834
293	7836
293	7838
293	7840
293	7842
293	7844
293	7846
294	7848
294	7851
294	7853
294	7855
294	7857
294	7859
295	7861
295	7863
295	7865
295	7867
295	7869
296	7871
296	7873
296	7875
296	7877
296	7879
297	7881
297	7883
297	7885
297	7887
297	7889
298	7891
298	7894
298	7896
298	7898
298	7900
299	7902
299	7904
299	7906
299	7908
299	7910
299	7912
300	7914
300	7916
300	7918
300	7920
300	7922
301	7924
301	7926
301	7928
301	7930
301	7932
301	7934
302	7936
302	7938
302	7940
302	7942
302	7944
302	7946
302	7948
302	7950
302	7952
302	7954
302	7956
302	7958
302	7960
303	7962
302	7964
303	7966
303	7968
303	7970
303	7972
303	7974
303	7976
304	7979
304	7981
304	7983
304	7985
304	7987
304	7989
304	7991
304	7993
304	7995
304	7997
304	7999
304	8001
303	8003
303	8005
303	8007
302	8009
302	8011
302	8013
302	8015
302	8017
301	8019
301	8022
300	8024
300	8026
299	8028
299	8030
299	8032
299	8034
299	8036
298	8038
298	8040
298	8042
298	8044
297	8046
297	8048
297	8050
297	8052
297	8054
297	8056
296	8058
297	8060
297	8062
297	8064
296	8066
296	8068
297	8070
296	8072
296	8074
297	8076
296	8078
296	8080
296	8082
296	8084
296	8086
296	8088
296	8090
296	8092
295	8094
296	8096
296	8098
296	8100
296	8102
296	8104
295	8107
295	8109
295	8111
295	8113
295	8115
295	8117
295	8119
295	8121
295	8123
295	8125
295	8127
295	8129
295	8131
295	8133
295	8135
295	8137
294	8139
294	8141
294	8143
294	8145
295	8147
294	8150
294	8152
294	8154
294	8156
293	8158
293	8160
293	8162
294	8164
294	8166
294	8168
294	8170
293	8172
293	8174
293	8176
293	8178
293	8180
293	8182
293	8184
293	8186
293	8188
293	8190
293	8192
293	8194
293	8196
293	8198
293	8200
293	8202
293	8204
293	8206
293	8208
293	8210
294	8212
294	8214
295	8216
295	8218
295	8220
296	8222
296	8224
296	8226
297	8228
297	8230
297	8232
298	8235
298	8237
298	8239
299	8241
299	8243
299	8245
299	8247
300	8249
301	8251
301	8253
301	8255
301	8257
301	8259
302	8261
302	8263
302	8265
302	8267
302	8269
302	8271
302	8273
302	8275
302	8278
301	8280
301	8282
301	8284
300	8286
300	8288
299	8290
299	8292
298	8294
298	8296
298	8298
297	8300
297	8302
296	8304
297	8306
296	8308
295	8310
295	8312
295	8314
294	8316
294	8318
294	8320
294	8322
293	8324
293	8326
293	8328
293	8330
292	8332
292	8334
292	8336
291	8338
291	8340
291	8342
291	8344
291	8346
291	8348
290	8350
290	8352
290	8354
290	8356
290	8358
289	8360
288	8363
287	8365
286	8367
285	8369
285	8371
284	8373
285	8375
285	8377
287	8379
289	8381
292	8383
294	8385
298	8387
301	8389
304	8391
306	8393
307	8395
307	8397
306	8399
304	8401
302	8403
299	8406
297	8408
294	8410
293	8412
291	8414
291	8416
290	8418
290	8420
290	8422
290	8424
290	8426
289	8428
289	8430
290	8432
290	8434
290	8436
290	8438
290	8440
290	8442
290	8444
290	8446
290	8448
291	8450
291	8452
290	8454
291	8456
291	8458
291	8460
291	8462
292	8464
292	8466
292	8468
292	8470
293	8472
293	8474
293	8476
294	8478
293	8480
294	8482
294	8484
294	8486
295	8488
295	8491
295	8493
295	8495
295	8497
296	8499
296	8501
296	8503
296	8505
296	8507
297	8509
297	8511
297	8513
297	8515
298	8517
298	8519
298	8521
299	8523
298	8525
299	8527
299	8529
299	8531
300	8534
300	8536
300	8538
300	8540
300	8542
300	8544
301	8546
301	8548
301	8550
301	8552
301	8554
302	8556
302	8558
302	8560
302	8562
302	8564
303	8566
303	8568
303	8570
303	8572
303	8574
304	8576
304	8578
304	8580
304	8582
304	8584
304	8586
304	8588
304	8590
304	8592
304	8594
304	8596
305	8598
305	8600
305	8602
305	8604
305	8606
305	8608
305	8610
305	8612
306	8614
306	8616
306	8619
306	8621
306	8623
306	8625
306	8627
306	8629
306	8631
306	8633
306	8635
306	8637
305	8639
306	8641
305	8643
305	8645
305	8647
305	8649
304	8651
305	8653
304	8655
303	8657
303	8659
302	8662
302	8664
302	8666
301	8668
301	8670
301	8672
300	8674
300	8676
300	8678
299	8680
299	8682
299	8684
299	8686
299	8688
298	8690
298	8692
298	8694
298	8696
298	8698
298	8700
297	8702
297	8704
297	8706
297	8708
297	8710
297	8712
296	8714
296	8716
296	8718
296	8720
296	8722
295	8724
295	8726
296	8728
295	8730
295	8732
295	8734
295	8736
295	8738
295	8740
295	8742
295	8744
294	8747
294	8749
295	8751
294	8753
294	8755
294	8757
294	8759
294	8761
294	8763
294	8765
294	8767
294	8769
294	8771
294	8773
294	8775
294	8777
294	8779
294	8781
294	8783
294	8785
293	8787
293	8790
293	8792
293	8794
293	8796
293	8798
293	8800
293	8802
293	8804
293	8806
293	8808
292	8810
293	8812
293	8814
293	8816
293	8818
293	8820
293	8822
292	8824
292	8826
292	8828
292	8830
292	8832
292	8834
292	8836
292	8838
292	8840
292	8842
292	8844
292	8846
292	8848
292	8850
292	8852
291	8854
291	8856
291	8858
291	8860
291	8862
291	8864
291	8866
291	8868
291	8870
291	8872
291	8875
291	8877
292	8879
292	8881
293	8883
293	8885
293	8887
294	8889
294	8891
294	8893
294	8895
295	8897
295	8899
295	8901
296	8903
296	8905
296	8907
297	8909
297	8911
298	8913
298	8915
299	8918
299	8920
300	8922
300	8924
300	8926
300	8928
301	8930
301	8932
301	8934
302	8936
302	8938
301	8940
302	8942
302	8944
301	8946
302	8948
301	8950
301	8952
300	8954
300	8956
300	8958
299	8960
299	8962
299	8964
298	8966
298	8968
297	8970
297	8972
297	8974
296	8976
296	8978
296	8980
295	8982
295	8984
294	8986
294	8988
294	8990
294	8992
293	8994
293	8996
293	8998
293	9000
292	9003
292	9005
292	9007
292	9009
292	9011
292	9013
291	9015
292	9017
291	9019
291	9021
291	9023
290	9025
290	9027
290	9029
290	9031
289	9033
288	9035
287	9037
286	9039
285	9041
284	9043
284	9046
285	9048
286	9050
288	9052
290	9054
293	9056
296	9058
299	9060
302	9062
305	9064
307	9066
308	9068
307	9070
305	9072
303	9074
301	9076
299	9078
296	9080
294	9082
292	9084
292	9086
291	9088
290	9090
290	9092
290	9094
290	9096
290	9098
290	9100
290	9102
290	9104
290	9106
290	9108
290	9110
290	9112
290	9114
290	9116
290	9118
291	9120
290	9122
291	9124
291	9126
291	9128
291	9131
291	9133
292	9135
292	9137
292	9139
292	9141
292	9143
292	9145
293	9147
293	9149
294	9151
294	9153
294	9155
294	9157
295	9159
294	9161
295	9163
295	9165
296	9167
296	9169
296	9171
296	9174
297	9176
297	9178
297	9180
297	9182
297	9184
298	9186
298	9188
298	9190
298	9192
298	9194
298	9196
299	9198
299	9200
299	9202
299	9204
299	9206
300	9208
300	9210
300	9212
301	9214
301	9216
301	9218
301	9220
302	9222
302	9224
302	9226
302	9228
303	9230
303	9232
303	9234
304	9236
304	9238
304	9240
304	9242
304	9244
305	9246
305	9248
305	9250
305	9252
306	9254
306	9256
306	9259
306	9261
306	9263
306	9265
306	9267
306	9269
306	9271
306	9273
306	9275
306	9277
306	9279
307	9281
307	9283
307	9285
307	9287
307	9289
307	9291
307	9293
307	9295
307	9297
307	9299
307	9302
307	9304
307	9306
306	9308
306	9310
306	9312
306	9314
306	9316
305	9318
305	9320
305	9322
304	9324
304	9326
304	9328
303	9330
302	9332
302	9334
302	9336
302	9338
301	9340
300	9342
300	9344
300	9346
300	9348
299	9350
299	9352
299	9354
299	9356
299	9358
298	9360
298	9362
298	9364
297	9366
297	9368
297	9370
296	9372
296	9374
296	9376
296	9378
296	9380
295	9382
295	9384
295	9387
295	9389
295	9391
295	9393
294	9395
294	9397
294	9399
294	9401
294	9403
294	9405
293	9407
293	9409
293	9411
294	9413
293	9415
293	9417
293	9419
293	9421
293	9423
293	9425
293	9427
293	9430
293	9432
293	9434
293	9436
293	9438
293	9440
293	9442
292	9444
292	9446
292	9448
292	9450
292	9452
292	9454
292	9456
292	9458
291	9460
291	9462
291	9464
291	9466
291	9468
291	9470
291	9472
291	9474
291	9476
291	9478
291	9480
291	9482
291	9484
291	9486
291	9488
291	9490
290	9492
290	9494
290	9496
290	9498
291	9500
290	9502
290	9504
290	9506
290	9508
290	9510
290	9512
290	9515
290	9517
290	9519
290	9521
290	9523
290	9525
290	9527
290	9529
290	9531
290	9533
290	9535
290	9537
290	9539
290	9541
290	9543
290	9545
290	9547
290	9549
291	9551
291	9553
291	9555
292	9558
292	9560
292	9562
293	9564
293	9566
293	9568
294	9570
294	9572
294	9574
295	9576
295	9578
296	9580
296	9582
297	9584
297	9586
297	9588
297	9590
298	9592
298	9594
298	9596
299	9598
299	9600
299	9602
300	9604
300	9606
300	9608
300	9610
300	9612
300	9614
300	9616
300	9618
299	9620
299	9622
298	9624
298	9626
298	9628
298	9630
297	9632
297	9634
297	9636
296	9638
296	9640
296	9643
295	9645
295	9647
295	9649
294	9651
294	9653
293	9655
293	9657
293	9659
292	9661
292	9663
292	9665
292	9667
291	9669
291	9671
291	9673
291	9675
290	9677
291	9679
291	9681
290	9683
290	9686
290	9688
290	9690
290	9692
290	9694
290	9696
290	9698
289	9700
288	9702
287	9704
286	9706
285	9708
284	9710
284	9712
284	9714
284	9716
286	9718
288	9720
290	9722
293	9724
296	9726
298	9728
301	9730
304	9732
307	9734
308	9736
308	9738
307	9740
306	9742
303	9744
301	9746
298	9748
296	9750
294	9752
292	9754
292	9756
291	9758
291	9760
290	9762
290	9764
290	9766
290	9768
290	9771
290	9773
290	9775
290	9777
290	9779
290	9781
290	9783
290	9785
290	9787
290	9789
290	9791
290	9793
291	9795
290	9797
291	9799
291	9801
291	9803
291	9805
291	9807
291	9809
292	9811
292	9814
292	9816
293	9818
293	9820
293	9822
293	9824
293	9826
293	9828
294	9830
294	9832
294	9834
294	9836
295	9838
295	9840
295	9842
295	9844
296	9846
296	9848
296	9850
296	9852
297	9854
296	9856
297	9858
297	9860
297	9862
297	9864
298	9866
298	9868
298	9870
298	9872
298	9874
299	9876
299	9878
299	9880
299	9882
300	9884
300	9886
300	9888
300	9890
300	9892
300	9894
301	9896
301	9899
301	9901
302	9903
302	9905
302	9907
303	9909
303	9911
303	9913
303	9915
303	9917
304	9919
304	9921
304	9923
304	9925
304	9927
304	9929
305	9931
305	9933
305	9935
305	9937
305	9939
305	9942
305	9944
305	9946
306	9948
305	9950
305	9952
306	9954
306	9956
306	9958
306	9960
306	9962
307	9964
306	9966
306	9968
306	9970
306	9972
306	9974
305	9976
305	9978
305	9980
304	9982
305	9984
304	9986
304	9988
303	9990
303	9992
302	9994
302	9996
302	9998
301	10000
301	10002
300	10004
300	10006
299	10008
299	10010
299	10012
298	10014
298	10016
297	10018
297	10020
296	10022
296	10024
296	10027
296	10029
296	10031
296	10033
295	10035
295	10037
295	10039
295	10041
295	10043
294	10045
294	10047
294	10049
294	10051
294	10053
294	10055
294	10057
294	10059
294	10061
294	10063
293	10065
293	10067
293	10070
293	10072
293	10074
293	10076
293	10078
293	10080
293	10082
293	10084
293	10086
293	10088
293	10090
292	10092
293	10094
292	10096
292	10098
293	10100
292	10102
292	10104
292	10106
292	10108
292	10110
291	10112
292	10114
292	10116
292	10118
292	10120
291	10122
291	10124
291	10126
291	10128
291	10130
291	10132
291	10134
291	10136
291	10138
291	10140
291	10142
291	10144
291	10146
291	10148
291	10150
290	10152
290	10155
290	10157
291	10159
290	10161
291	10163
291	10165
291	10167
291	10169
291	10171
292	10173
292	10175
292	10177
292	10179
293	10181
293	10183
294	10185
294	10187
294	10189
295	10191
295	10193
295	10195
295	10198
296	10200
296	10202
297	10204
297	10206
297	10208
298	10210
298	10212
299	10214
299	10216
299	10218
299	10220
299	10222
300	10224
299	10226
300	10228
300	10230
300	10232
299	10234
299	10236
299	10238
299	10240
298	10242
298	10244
298	10246
297	10248
297	10250
297	10252
296	10254
296	10256
295	10258
295	10260
295	10262
294	10264
294	10266
294	10268
293	10270
293	10272
293	10274
293	10276
293	10278
292	10280
292	10283
291	10285
291	10287
291	10289
291	10291
290	10293
290	10295
290	10297
290	10299
290	10301
290	10303
290	10305
290	10307
289	10309
289	10311
289	10313
289	10315
289	10317
288	10319
287	10321
286	10323
285	10326
284	10328
284	10330
284	10332
284	10334
285	10336
287	10338
289	10340
292	10342
294	10344
297	10346
300	10348
303	10350
305	10352
306	10354
307	10356
306	10358
305	10360
303	10362
300	10364
297	10366
296	10368
293	10370
291	10372
290	10374
289	10376
288	10378
288	10380
287	10382
287	10384
287	10386
287	10388
287	10390
287	10392
287	10394
287	10396
288	10398
288	10400
288	10402
288	10404
287	10406
288	10408
288	10411
288	10413
288	10415
288	10417
289	10419
289	10421
289	10423
289	10425
289	10427
289	10429
290	10431
290	10433
291	10435
291	10437
291	10439
292	10441
292	10443
292	10445
292	10447
292	10449
293	10451
293	10454
293	10456
293	10458
294	10460
294	10462
295	10464
294	10466
295	10468
295	10470
295	10472
296	10474
296	10476
296	10478
297	10480
297	10482
297	10484
297	10486
297	10488
298	10490
298	10492
298	10494
298	10496
298	10498
299	10500
299	10502
299	10504
300	10506
300	10508
300	10510
300	10512
300	10514
301	10516
301	10518
302	10520
302	10522
302	10524
302	10526
303	10528
303	10530
303	10532
303	10534
304	10536
304	10539
305	10541
304	10543
305	10545
305	10547
305	10549
306	10551
306	10553
307	10555
307	10557
307	10559
307	10561
307	10563
307	10565
307	10567
308	10569
308	10571
308	10573
308	10575
308	10577
308	10579
308	10582
308	10584
308	10586
308	10588
308	10590
307	10592
307	10594
307	10596
306	10598
306	10600
306	10602
305	10604
305	10606
304	10608
304	10610
304	10612
303	10614
303	10616
302	10618
301	10620
301	10622
301	10624
300	10626
300	10628
299	10630
299	10632
299	10634
299	10636
298	10638
297	10640
297	10642
297	10644
297	10646
296	10648
296	10650
296	10652
296	10654
295	10656
295	10658
295	10660
294	10662
295	10664
294	10667
294	10669
294	10671
294	10673
294	10675
294	10677
293	10679
294	10681
293	10683
294	10685
294	10687
293	10689
293	10691
293	10693
293	10695
293	10697
293	10699
293	10701
293	10703
293	10705
293	10707
293	10710
293	10712
293	10714
293	10716
293	10718
293	10720
293	10722
293	10724
293	10726
293	10728
293	10730
294	10732
294	10734
295	10736
295	10738
295	10740
296	10742
296	10744
296	10746
296	10748
296	10750
296	10752
297	10754
297	10756
297	10758
297	10760
298	10762
298	10764
298	10766
299	10768
299	10770
300	10772
300	10774
300	10776
300	10778
300	10780
300	10782
301	10784
301	10786
301	10788
301	10790
300	10792
301	10795
300	10797
300	10799
300	10801
299	10803
299	10805
299	10807
298	10809
298	10811
297	10813
297	10815
296	10817
296	10819
296	10821
295	10823
294	10825
294	10827
294	10829
293	10831
293	10833
293	10835
292	10838
292	10840
291	10842
291	10844
290	10846
290	10848
290	10850
289	10852
289	10854
289	10856
288	10858
288	10860
288	10862
288	10864
288	10866
288	10868
288	10870
288	10872
287	10874
287	10876
286	10878
286	10880
286	10882
285	10884
284	10886
283	10888
282	10890
281	10892
281	10894
281	10896
282	10898
284	10900
286	10902
288	10904
290	10906
293	10908
295	10910
298	10912
300	10914
301	10916
302	10918
301	10920
300	10923
298	10925
296	10927
294	10929
292	10931
289	10933
288	10935
287	10937
286	10939
286	10941
286	10943
285	10945
286	10947
286	10949
286	10951
286	10953
286	10955
286	10957
286	10959
286	10961
287	10963
287	10966
287	10968
287	10970
287	10972
287	10974
287	10976
287	10978
287	10980
288	10982
288	10984
288	10986
288	10988
288	10990
289	10992
289	10994
289	10996
290	10998
289	11000
290	11002
290	11004
290	11006
290	11008
291	11010
291	11012
291	11014
292	11016
292	11018
292	11020
292	11022
292	11024
293	11026
293	11028
293	11030
294	11032
294	11034
294	11036
295	11038
295	11040
295	11042
295	11044
296	11046
296	11048
296	11051
296	11053
297	11055
297	11057
297	11059
298	11061
298	11063
298	11065
298	11067
299	11069
299	11071
299	11073
299	11075
300	11077
300	11079
300	11081
300	11083
300	11085
301	11087
301	11089
301	11091
301	11094
302	11096
302	11098
303	11100
303	11102
303	11104
303	11106
303	11108
303	11110
303	11112
304	11114
304	11116
304	11118
304	11120
305	11122
305	11124
305	11126
305	11128
305	11130
305	11132
306	11134
306	11136
306	11138
306	11140
306	11142
306	11144
306	11146
306	11148
306	11150
305	11152
306	11154
306	11156
305	11158
305	11160
304	11162
304	11164
304	11166
304	11168
303	11170
303	11172
303	11174
302	11176
302	11179
302	11181
301	11183
301	11185
300	11187
300	11189
300	11191
299	11193
298	11195
298	11197
298	11199
298	11201
298	11203
297	11205
297	11207
297	11209
296	11211
296	11213
296	11215
296	11217
296	11219
296	11222
296	11224
296	11226
295	11228
295	11230
295	11232
295	11234
296	11236
295	11238
295	11240
295	11242
295	11244
295	11246
295	11248
294	11250
295	11252
295	11254
294	11256
295	11258
294	11260
295	11262
295	11264
295	11266
295	11268
296	11270
296	11272
296	11274
296	11276
297	11278
297	11280
297	11282
298	11284
298	11286
299	11288
299	11290
299	11292
299	11294
300	11296
300	11298
301	11300
301	11302
302	11304
302	11307
302	11309
302	11311
303	11313
302	11315
303	11317
303	11319
303	11321
303	11323
302	11325
303	11327
302	11329
302	11331
302	11333
302	11335
302	11337
301	11339
301	11341
300	11343
300	11345
299	11347
298	11350
298	11352
298	11354
297	11356
296	11358
296	11360
295	11362
295	11364
295	11366
294	11368
293	11370
293	11372
292	11374
292	11376
292	11378
291	11380
291	11382
291	11384
290	11386
290	11388
290	11390
290	11392
289	11394
289	11396
289	11398
288	11400
288	11402
288	11404
288	11406
288	11408
287	11410
287	11412
287	11414
286	11416
286	11418
285	11420
283	11422
282	11424
281	11426
281	11428
280	11430
281	11432
282	11435
284	11437
286	11439
288	11441
290	11443
293	11445
295	11447
297	11449
299	11451
299	11453
299	11455
299	11457
297	11459
295	11461
293	11463
291	11465
289	11467
288	11469
287	11471
286	11473
286	11475
285	11478
285	11480
285	11482
285	11484
286	11486
286	11488
286	11490
286	11492
286	11494
286	11496
286	11498
287	11500
287	11502
287	11504
287	11506
288	11508
288	11510
288	11512
288	11514
288	11516
289	11518
289	11520
289	11522
289	11524
289	11526
289	11528
290	11530
290	11532
290	11534
290	11536
291	11538
291	11540
291	11542
291	11544
291	11546
292	11548
292	11550
292	11552
292	11554
293	11556
293	11558
293	11560
293	11563
293	11565
294	11567
294	11569
294	11571
295	11573
295	11575
295	11577
295	11579
296	11581
296	11583
296	11585
296	11587
297	11589
297	11591
297	11593
297	11595
297	11597
298	11599
298	11601
298	11603
299	11606
299	11608
299	11610
299	11612
299	11614
300	11616
300	11618
300	11620
301	11622
301	11624
301	11626
301	11628
301	11630
301	11632
302	11634
302	11636
302	11638
303	11640
303	11642
303	11644
303	11646
303	11648
303	11650
304	11652
304	11654
304	11656
304	11658
304	11660
304	11662
304	11664
305	11666
305	11668
305	11670
305	11672
305	11674
305	11676
305	11678
305	11680
304	11682
305	11684
305	11686
304	11688
305	11691
304	11693
304	11695
304	11697
304	11699
303	11701
303	11703
303	11705
303	11707
302	11709
302	11711
301	11713
301	11715
301	11717
301	11719
300	11721
300	11723
300	11725
299	11727
299	11729
299	11731
298	11734
299	11736
298	11738
298	11740
298	11742
297	11744
297	11746
297	11748
297	11750
297	11752
297	11754
296	11756
296	11758
296	11760
296	11762
296	11764
296	11766
296	11768
296	11770
296	11772
296	11774
295	11776
296	11778
295	11780
295	11782
296	11784
296	11786
296	11788
296	11790
296	11792
297	11794
297	11796
298	11798
298	11800
298	11802
299	11804
299	11806
300	11808
300	11810
300	11812
301	11814
301	11816
301	11819
302	11821
302	11823
302	11825
303	11827
303	11829
303	11831
304	11833
304	11835
304	11837
304	11839
304	11841
304	11843
303	11845
303	11847
304	11849
304	11851
303	11853
303	11855
303	11857
303	11859
302	11862
302	11864
301	11866
301	11868
300	11870
300	11872
300	11874
299	11876
298	11878
298	11880
297	11882
297	11884
296	11886
296	11888
295	11890
295	11892
294	11894
294	11896
293	11898
293	11900
293	11902
292	11904
292	11906
291	11908
291	11910
290	11912
290	11914
290	11916
290	11918
290	11920
289	11922
289	11924
289	11926
289	11928
288	11930
288	11932
288	11934
288	11936
287	11938
286	11940
285	11942
284	11944
283	11947
282	11949
282	11951
281	11953
281	11955
282	11957
284	11959
286	11961
287	11963
290	11965
292	11967
295	11969
297	11971
298	11973
299	11975
299	11977
298	11979
297	11981
295	11983
293	11985
291	11987
289	11990
288	11992
287	11994
287	11996
286	11998
286	12000
286	12002
286	12004
286	12006
286	12008
286	12010
286	12012
286	12014
286	12016
286	12018
287	12020
287	12022
287	12024
287	12026
287	12028
287	12030
287	12032
288	12034
288	12036
288	12038
288	12040
288	12042
289	12044
289	12046
289	12048
289	12050
290	12052
290	12054
290	12056
291	12058
290	12060
290	12062
291	12064
291	12066
292	12068
292	12070
292	12072
292	12075
293	12077
293	12079
293	12081
293	12083
294	12085
294	12087
294	12089
294	12091
295	12093
295	12095
295	12097
295	12099
296	12101
296	12103
296	12105
296	12107
296	12109
297	12111
297	12113
297	12115
298	12118
298	12120
298	12122
298	12124
298	12126
299	12128
299	12130
299	12132
300	12134
300	12136
300	12138
300	12140
300	12142
301	12144
301	12146
301	12148
302	12150
302	12152
302	12154
302	12156
302	12158
302	12160
302	12162
303	12164
303	12166
303	12168
304	12170
304	12172
304	12174
304	12176
304	12178
305	12180
305	12182
305	12184
305	12186
305	12188
306	12190
305	12192
306	12194
306	12196
306	12198
306	12200
306	12203
306	12205
306	12207
306	12209
306	12211
306	12213
305	12215
305	12217
305	12219
305	12221
305	12223
304	12225
304	12227
304	12229
304	12231
303	12233
303	12235
303	12237
302	12239
302	12241
302	12243
301	12246
301	12248
301	12250
301	12252
300	12254
300	12256
300	12258
299	12260
299	12262
299	12264
299	12266
299	12268
298	12270
298	12272
298	12274
298	12276
297	12278
297	12280
297	12282
297	12284
297	12286
297	12288
297	12290
297	12292
297	12294
297	12296
297	12298
297	12300
297	12302
297	12304
298	12306
298	12308
298	12310
298	12312
298	12314
300	12316
300	12318
300	12320
300	12322
301	12324
301	12326
301	12328
301	12331
302	12333
302	12335
303	12337
303	12339
303	12341
304	12343
304	12345
304	12347
305	12349
305	12351
305	12353
305	12355
305	12357
306	12359
306	12361
305	12363
305	12365
305	12367
305	12369
305	12371
305	12374
304	12376
304	12378
303	12380
303	12382
302	12384
302	12386
301	12388
301	12390
300	12392
299	12394
299	12396
298	12398
298	12400
297	12402
297	12404
296	12406
296	12408
295	12410
295	12412
294	12414
294	12416
294	12418
293	12420
293	12422
293	12424
293	12426
292	12428
292	12430
291	12432
291	12434
291	12436
290	12438
290	12440
290	12442
290	12444
290	12446
290	12448
289	12450
289	12452
289	12454
288	12456
287	12459
286	12461
285	12463
284	12465
283	12467
282	12469
282	12471
282	12473
283	12475
285	12477
287	12479
289	12481
291	12483
294	12485
296	12487
298	12489
300	12491
300	12493
299	12495
299	12497
297	12499
295	12502
293	12504
291	12506
290	12508
289	12510
288	12512
288	12514
288	12516
287	12518
288	12520
287	12522
288	12524
288	12526
288	12528
288	12530
288	12532
288	12534
288	12536
288	12538
288	12540
289	12542
289	12544
289	12546
289	12548
289	12550
289	12552
290	12554
290	12556
290	12558
290	12560
290	12562
290	12564
291	12566
291	12568
291	12570
291	12572
291	12574
291	12576
292	12578
292	12580
292	12582
292	12584
292	12587
293	12589
293	12591
293	12593
293	12595
293	12597
294	12599
294	12601
294	12603
295	12605
295	12607
295	12609
296	12611
296	12613
296	12615
296	12617
296	12619
297	12621
297	12623
297	12625
297	12627
298	12630
298	12632
298	12634
298	12636
299	12638
299	12640
299	12642
299	12644
300	12646
300	12648
300	12650
300	12652
301	12654
301	12656
301	12658
302	12660
301	12662
302	12664
302	12666
302	12668
302	12670
302	12672
302	12674
303	12676
303	12678
303	12680
303	12682
303	12684
304	12686
304	12688
304	12690
304	12692
304	12694
305	12696
305	12698
305	12700
305	12702
305	12704
306	12706
306	12708
306	12710
306	12712
306	12715
306	12717
307	12719
306	12721
306	12723
306	12725
306	12727
306	12729
306	12731
305	12733
305	12735
305	12737
305	12739
305	12741
304	12743
304	12745
303	12747
303	12749
303	12751
303	12753
302	12755
302	12758
301	12760
300	12762
300	12764
300	12766
300	12768
300	12770
299	12772
299	12774
299	12776
299	12778
299	12780
298	12782
298	12784
298	12786
298	12788
297	12790
297	12792
297	12794
297	12796
297	12798
297	12800
297	12802
297	12804
297	12806
296	12808
297	12810
296	12812
296	12814
296	12816
296	12818
296	12820
297	12822
297	12824
297	12826
298	12828
298	12830
299	12832
299	12834
299	12836
300	12838
300	12840
300	12843
300	12845
301	12847
301	12849
302	12851
302	12853
302	12855
303	12857
303	12859
303	12861
303	12863
304	12865
304	12867
304	12869
305	12871
305	12873
305	12875
305	12877
304	12879
304	12881
304	12883
304	12886
304	12888
304	12890
304	12892
304	12894
303	12896
302	12898
302	12900
302	12902
301	12904
301	12906
300	12908
300	12910
299	12912
298	12914
298	12916
297	12918
297	12920
297	12922
296	12924
296	12926
295	12928
295	12930
295	12932
294	12934
294	12936
293	12938
293	12940
293	12942
292	12944
292	12946
291	12948
291	12950
291	12952
291	12954
291	12956
291	12958
290	12960
290	12962
289	12964
289	12966
290	12968
289	12971
288	12973
288	12975
287	12977
286	12979
284	12981
283	12983
282	12985
282	12987
281	12989
281	12991
282	12993
284	12995
286	12997
288	12999
291	13001
293	13003
296	13005
299	13007
300	13009
300	13011
300	13014
299	13016
297	13018
296	13020
293	13022
292	13024
290	13026
289	13028
288	13030
288	13032
288	13034
288	13036
287	13038
288	13040
288	13042
288	13044
288	13046
288	13048
288	13050
288	13052
288	13054
289	13056
289	13058
289	13060
289	13062
289	13064
289	13066
289	13068
289	13070
290	13072
290	13074
290	13076
290	13078
290	13080
291	13082
291	13084
292	13086
292	13088
292	13090
292	13092
292	13094
292	13096
293	13099
293	13101
293	13103
293	13105
293	13107
294	13109
294	13111
294	13113
294	13115
294	13117
295	13119
295	13121
295	13123
295	13125
296	13127
296	13129
296	13131
296	13133
296	13135
297	13137
297	13139
297	13142
298	13144
297	13146
298	13148
298	13150
298	13152
299	13154
299	13156
299	13158
299	13160
299	13162
299	13164
300	13166
300	13168
300	13170
301	13172
301	13174
301	13176
301	13178
302	13180
302	13182
302	13184
303	13186
302	13188
302	13190
303	13192
303	13194
303	13196
303	13198
303	13200
304	13202
304	13204
304	13206
304	13208
304	13210
305	13212
305	13214
305	13216
305	13218
305	13220
306	13222
306	13224
306	13227
306	13229
306	13231
306	13233
306	13235
306	13237
306	13239
307	13241
306	13243
306	13245
306	13247
306	13249
305	13251
305	13253
305	13255
304	13257
304	13259
304	13261
303	13263
303	13265
303	13267
302	13270
302	13272
302	13274
301	13276
301	13278
301	13280
300	13282
300	13284
300	13286
300	13288
299	13290
299	13292
299	13294
299	13296
298	13298
298	13300
298	13302
298	13304
298	13306
298	13308
297	13310
298	13312
298	13314
297	13316
297	13318
297	13320
297	13322
297	13324
297	13326
297	13328
297	13330
297	13332
297	13334
297	13336
297	13338
297	13340
297	13342
297	13344
297	13346
297	13348
298	13350
298	13352
299	13355
299	13357
299	13359
300	13361
300	13363
300	13365
300	13367
301	13369
301	13371
301	13373
302	13375
302	13377
302	13379
303	13381
303	13383
303	13385
304	13387
304	13389
304	13391
305	13393
304	13395
304	13398
304	13400
304	13402
304	13404
304	13406
304	13408
304	13410
303	13412
303	13414
303	13416
302	13418
301	13420
301	13422
301	13424
300	13426
299	13428
299	13430
299	13432
298	13434
297	13436
297	13438
296	13440
296	13442
295	13444
295	13446
294	13448
294	13450
294	13452
293	13454
293	13456
292	13458
291	13460
291	13462
291	13464
290	13466
290	13468
290	13470
290	13472
290	13474
289	13476
289	13478
289	13480
288	13483
288	13485
288	13487
288	13489
288	13491
287	13493
287	13495
286	13497
285	13499
284	13501
283	13503
281	13505
281	13507
279	13509
279	13511
280	13513
281	13515
283	13517
285	13519
287	13521
290	13523
293	13526
296	13528
298	13530
300	13532
300	13534
300	13536
299	13538
297	13540
295	13542
293	13544
291	13546
290	13548
289	13550
289	13552
288	13554
288	13556
288	13558
288	13560
288	13562
288	13564
288	13566
288	13568
288	13570
288	13572
288	13574
288	13576
288	13578
288	13580
288	13582
289	13584
288	13586
289	13588
289	13590
289	13592
289	13594
290	13596
290	13598
290	13600
290	13602
290	13604
290	13606
291	13608
291	13611
291	13613
291	13615
291	13617
292	13619
292	13621
292	13623
292	13625
292	13627
293	13629
293	13631
293	13633
293	13635
294	13637
294	13639
294	13641
295	13643
294	13645
295	13647
295	13649
295	13651
295	13654
295	13656
296	13658
296	13660
296	13662
296	13664
296	13666
297	13668
297	13670
298	13672
298	13674
298	13676
298	13678
298	13680
299	13682
299	13684
299	13686
300	13688
300	13690
300	13692
300	13694
300	13696
300	13698
301	13700
301	13702
301	13704
302	13706
302	13708
302	13710
302	13712
302	13714
302	13716
303	13718
303	13720
303	13722
303	13724
303	13726
304	13728
304	13730
304	13732
304	13734
304	13736
304	13739
305	13741
304	13743
305	13745
305	13747
305	13749
305	13751
305	13753
305	13755
306	13757
305	13759
305	13761
305	13763
305	13765
304	13767
305	13769
304	13771
304	13773
304	13775
304	13777
303	13779
303	13782
303	13784
303	13786
302	13788
302	13790
301	13792
301	13794
300	13796
300	13798
300	13800
300	13802
299	13804
299	13806
299	13808
298	13810
298	13812
298	13814
297	13816
298	13818
297	13820
297	13822
297	13824
297	13826
297	13828
296	13830
296	13832
296	13834
296	13836
296	13838
296	13840
296	13842
296	13844
296	13846
296	13848
296	13850
295	13852
295	13854
295	13856
295	13858
295	13860
295	13862
295	13864
295	13867
295	13869
295	13871
295	13873
295	13875
295	13877
295	13879
295	13881
295	13883
296	13885
296	13887
297	13889
297	13891
297	13893
297	13895
298	13897
298	13899
298	13901
299	13903
299	13905
299	13907
300	13910
300	13912
300	13914
301	13916
301	13918
302	13920
302	13922
303	13924
303	13926
303	13928
303	13930
303	13932
303	13934
303	13936
304	13938
303	13940
303	13942
303	13944
303	13946
302	13948
302	13950
302	13952
302	13954
301	13956
301	13958
300	13960
300	13962
299	13964
299	13966
298	13968
297	13970
297	13972
297	13974
296	13976
296	13978
295	13980
294	13982
294	13984
294	13986
293	13988
293	13990
292	13992
292	13995
291	13997
291	13999
291	14001
291	14003
290	14005
290	14007
290	14009
289	14011
288	14013
288	14015
288	14017
288	14019
288	14021
288	14023
288	14025
288	14027
287	14029
287	14031
287	14033
286	14035
285	14038
284	14040
283	14042
281	14044
281	14046
280	14048
279	14050
280	14052
282	14054
284	14056
286	14058
289	14060
292	14062
295	14064
298	14066
301	14068
303	14070
303	14072
303	14074
301	14076
300	14078
299	14080
296	14082
295	14084
293	14086
292	14088
291	14090
291	14092
290	14094
290	14096
289	14098
289	14100
289	14102
289	14104
289	14106
289	14108
289	14110
289	14112
289	14114
289	14116
289	14118
289	14120
289	14123
289	14125
290	14127
290	14129
289	14131
290	14133
290	14135
290	14137
290	14139
290	14141
290	14143
290	14145
290	14147
291	14149
291	14151
291	14153
291	14155
291	14157
291	14159
292	14161
292	14163
292	14166
292	14168
292	14170
293	14172
293	14174
293	14176
293	14178
293	14180
293	14182
294	14184
294	14186
294	14188
294	14190
295	14192
295	14194
295	14196
295	14198
295	14200
295	14202
296	14204
296	14206
297	14208
296	14210
297	14212
297	14214
297	14216
298	14218
298	14220
298	14222
299	14224
299	14226
299	14228
299	14230
299	14232
299	14234
300	14236
300	14238
300	14240
301	14242
300	14244
301	14246
301	14248
301	14251
301	14253
302	14255
302	14257
302	14259
302	14261
302	14263
303	14265
303	14267
303	14269
303	14271
303	14273
303	14275
303	14277
304	14279
304	14281
304	14283
305	14285
305	14287
305	14289
305	14291
305	14294
305	14296
305	14298
305	14300
305	14302
305	14304
305	14306
305	14308
304	14310
304	14312
304	14314
303	14316
303	14318
303	14320
302	14322
302	14324
302	14326
301	14328
301	14330
300	14332
300	14334
300	14336
300	14338
299	14340
299	14342
299	14344
298	14346
298	14348
298	14350
297	14352
297	14354
297	14356
297	14358
296	14360
296	14362
296	14364
296	14366
296	14368
296	14370
295	14372
295	14374
296	14376
295	14379
295	14381
295	14383
295	14385
295	14387
295	14389
295	14391
295	14393
295	14395
295	14397
295	14399
295	14401
295	14403
295	14405
295	14407
296	14409
295	14411
295	14413
295	14415
295	14417
295	14419
295	14422
295	14424
295	14426
295	14428
295	14430
295	14432
295	14434
295	14436
295	14438
295	14440
295	14442
296	14444
295	14446
296	14448
296	14450
297	14452
297	14454
298	14456
298	14458
298	14460
298	14462
299	14464
298	14466
299	14468
300	14470
300	14472
301	14474
301	14476
301	14478
302	14480
302	14482
302	14484
303	14486
303	14488
303	14490
303	14492
303	14494
304	14496
304	14498
304	14500
303	14502
303	14504
303	14507
303	14509
303	14511
303	14513
302	14515
301	14517
301	14519
300	14521
300	14523
300	14525
299	14527
299	14529
298	14531
297	14533
297	14535
296	14537
296	14539
295	14541
295	14543
294	14545
294	14547
293	14550
293	14552
292	14554
292	14556
291	14558
291	14560
291	14562
291	14564
290	14566
290	14568
290	14570
289	14572
289	14574
289	14576
288	14578
288	14580
288	14582
288	14584
288	14586
287	14588
288	14590
287	14592
287	14594
287	14596
286	14598
285	14600
284	14602
283	14604
282	14606
281	14608
280	14610
280	14612
281	14614
282	14616
284	14618
287	14620
290	14622
293	14624
297	14626
300	14628
303	14630
305	14632
306	14635
305	14637
304	14639
302	14641
300	14643
297	14645
295	14647
294	14649
292	14651
292	14653
291	14655
291	14657
291	14659
291	14661
290	14663
291	14665
290	14667
290	14669
291	14671
290	14673
291	14675
290	14678
290	14680
290	14682
290	14684
290	14686
291	14688
290	14690
291	14692
290	14694
290	14696
291	14698
290	14700
291	14702
291	14704
291	14706
291	14708
291	14710
291	14712
291	14714
292	14716
292	14718
292	14720
292	14722
292	14724
292	14726
293	14728
293	14730
293	14732
293	14734
294	14736
293	14738
294	14740
294	14742
294	14744
295	14746
295	14748
295	14750
295	14752
296	14754
296	14756
296	14758
296	14760
296	14763
297	14765
297	14767
297	14769
297	14771
298	14773
298	14775
298	14777
298	14779
298	14781
298	14783
299	14785
299	14787
299	14789
300	14791
300	14793
300	14795
300	14797
300	14799
301	14801
301	14803
301	14806
302	14808
302	14810
302	14812
302	14814
302	14816
303	14818
303	14820
303	14822
304	14824
304	14826
304	14828
304	14830
304	14832
304	14834
304	14836
305	14838
305	14840
305	14842
305	14844
305	14846
306	14848
306	14850
306	14852
306	14854
306	14856
306	14858
306	14860
306	14862
306	14864
306	14866
306	14868
306	14870
306	14872
306	14874
306	14876
305	14878
304	14880
304	14882
304	14884
304	14886
303	14888
303	14891
302	14893
302	14895
301	14897
301	14899
301	14901
300	14903
300	14905
300	14907
300	14909
299	14911
298	14913
299	14915
298	14917
298	14919
298	14921
297	14923
297	14925
297	14927
296	14929
296	14931
296	14934
296	14936
296	14938
296	14940
296	14942
296	14944
295	14946
295	14948
295	14950
295	14952
295	14954
295	14956
295	14958
295	14960
294	14962
294	14964
294	14966
294	14968
294	14970
294	14972
294	14974
294	14976
293	14978
293	14980
293	14982
293	14984
293	14986
293	14988
293	14990
293	14992
293	14994
293	14996
293	14998
293	15000
293	15002
293	15004
293	15006
293	15008
292	15010
293	15012
292	15014
292	15016
293	15019
293	15021
293	15023
294	15025
294	15027
295	15029
295	15031
295	15033
296	15035
296	15037
296	15039
297	15041
297	15043
297	15045
297	15047
298	15049
299	15051
298	15053
299	15055
300	15057
300	15059
300	15062
301	15064
301	15066
301	15068
301	15070
302	15072
302	15074
302	15076
302	15078
302	15080
301	15082
302	15084
302	15086
301	15088
301	15090
301	15092
300	15094
299	15096
299	15098
299	15100
298	15102
298	15104
297	15106
297	15108
297	15110
296	15112
296	15114
295	15116
294	15118
294	15120
294	15122
293	15124
293	15126
292	15128
292	15130
292	15132
291	15134
291	15136
290	15138
290	15140
290	15142
290	15144
289	15147
289	15149
289	15151
288	15153
289	15155
288	15157
288	15159
288	15161
288	15163
288	15165
287	15167
287	15169
287	15171
286	15173
286	15175
285	15177
283	15179
282	15181
281	15183
281	15185
281	15187
281	15190
282	15192
284	15194
286	15196
290	15198
292	15200
296	15202
300	15204
303	15206
306	15208
307	15210
306	15212
306	15214
304	15216
301	15218
299	15220
297	15222
295	15224
293	15226
292	15228
291	15230
291	15232
291	15234
290	15236
290	15238
290	15240
290	15242
289	15244
290	15246
289	15248
289	15250
289	15252
289	15254
289	15256
289	15258
289	15260
289	15262
289	15264
289	15266
290	15268
289	15270
290	15272
290	15275
290	15277
290	15279
290	15281
290	15283
290	15285
290	15287
291	15289
291	15291
291	15293
292	15295
292	15297
292	15299
292	15301
292	15303
293	15305
293	15307
293	15309
294	15311
293	15313
293	15315
294	15318
294	15320
294	15322
295	15324
295	15326
295	15328
295	15330
295	15332
296	15334
296	15336
296	15338
297	15340
297	15342
297	15344
297	15346
298	15348
298	15350
298	15352
298	15354
298	15356
299	15358
299	15360
299	15362
300	15364
300	15366
300	15368
301	15370
301	15372
301	15374
302	15376
302	15378
302	15380
302	15382
303	15384
303	15386
303	15388
303	15390
304	15392
304	15394
304	15396
304	15398
304	15400
304	15403
305	15405
305	15407
305	15409
305	15411
305	15413
305	15415
306	15417
306	15419
306	15421
306	15423
307	15425
307	15427
306	15429
307	15431
306	15433
306	15435
307	15437
307	15439
306	15441
306	15443
306	15446
306	15448
305	15450
305	15452
305	15454
304	15456
304	15458
304	15460
303	15462
303	15464
302	15466
302	15468
302	15470
301	15472
301	15474
301	15476
300	15478
300	15480
299	15482
299	15484
298	15486
298	15488
298	15490
298	15492
297	15494
297	15496
297	15498
296	15500
296	15502
296	15504
296	15506
296	15508
296	15510
296	15512
295	15514
295	15516
295	15518
294	15520
295	15522
295	15524
295	15526
294	15528
294	15531
294	15533
294	15535
294	15537
294	15539
294	15541
294	15543
294	15545
294	15547
293	15549
294	15551
293	15553
293	15555
294	15557
294	15559
294	15561
293	15563
293	15565
293	15567
293	15569
293	15571
293	15574
293	15576
293	15578
293	15580
293	15582
293	15584
293	15586
292	15588
293	15590
292	15592
292	15594
293	15596
292	15598
292	15600
292	15602
292	15604
293	15606
293	15608
293	15610
293	15612
293	15614
293	15616
294	15618
294	15620
295	15622
295	15624
296	15626
296	15628
296	15630
296	15632
296	15634
297	15636
297	15638
297	15640
298	15642
298	15644
299	15646
299	15648
300	15650
300	15652
300	15654
301	15656
301	15659
301	15661
301	15663
302	15665
302	15667
301	15669
302	15671
302	15673
302	15675
302	15677
301	15679
301	15681
300	15683
300	15685
300	15687
299	15689
299	15691
298	15693
297	15695
297	15697
297	15699
296	15702
295	15704
295	15706
295	15708
294	15710
294	15712
293	15714
293	15716
292	15718
292	15720
292	15722
291	15724
291	15726
290	15728
290	15730
290	15732
290	15734
289	15736
289	15738
288	15740
289	15742
289	15744
288	15746
288	15748
288	15750
288	15752
288	15754
287	15756
287	15758
287	15760
287	15762
286	15764
285	15766
284	15768
283	15770
282	15772
282	15774
281	15776
281	15778
282	15780
283	15782
286	15784
288	15787
291	15789
294	15791
297	15793
301	15795
304	15797
305	15799
307	15801
306	15803
305	15805
303	15807
300	15809
298	15811
296	15813
294	15815
293	15817
292	15819
291	15821
291	15823
290	15825
290	15827
290	15830
290	15832
289	15834
289	15836
289	15838
290	15840
289	15842
290	15844
290	15846
289	15848
289	15850
289	15852
290	15854
290	15856
290	15858
290	15860
290	15862
290	15864
290	15866
290	15868
290	15870
290	15872
290	15874
290	15876
290	15878
291	15880
291	15882
291	15884
291	15886
292	15888
292	15890
292	15892
292	15894
292	15896
293	15898
293	15900
293	15902
294	15904
294	15906
295	15908
295	15910
295	15912
295	15915
296	15917
296	15919
296	15921
296	15923
297	15925
297	15927
297	15929
298	15931
298	15933
298	15935
299	15937
299	15939
299	15941
299	15943
299	15945
300	15947
300	15949
300	15951
301	15953
301	15955
301	15958
302	15960
302	15962
302	15964
302	15966
302	15968
303	15970
303	15972
303	15974
304	15976
304	15978
304	15980
304	15982
304	15984
305	15986
305	15988
305	15990
306	15992
306	15994
306	15996
306	15998
306	16000
306	16002
306	16004
306	16006
306	16008
307	16010
307	16012
307	16014
307	16016
307	16018
307	16020
308	16022
307	16024
307	16026
307	16028
307	16030
307	16032
307	16034
306	16036
306	16038
306	16040
306	16043
305	16045
305	16047
304	16049
304	16051
303	16053
303	16055
303	16057
302	16059
302	16061
301	16063
301	16065
301	16067
300	16069
300	16071
299	16073
299	16075
299	16077
298	16079
298	16081
298	16083
297	16086
297	16088
297	16090
297	16092
296	16094
296	16096
296	16098
296	16100
295	16102
295	16104
295	16106
295	16108
295	16110
295	16112
295	16114
295	16116
294	16118
294	16120
294	16122
294	16124
294	16126
294	16128
294	16130
294	16132
294	16134
293	16136
293	16138
294	16140
293	16142
293	16144
293	16146
293	16148
293	16150
293	16152
293	16154
293	16156
293	16158
293	16160
292	16162
293	16164
293	16166
292	16168
292	16171
292	16173
292	16175
292	16177
292	16179
292	16181
292	16183
292	16185
292	16187
292	16189
292	16191
293	16193
292	16195
293	16197
294	16199
294	16201
294	16203
294	16205
295	16207
295	16209
296	16211
296	16214
296	16216
296	16218
297	16220
298	16222
298	16224
298	16226
299	16228
299	16230
299	16232
300	16234
300	16236
301	16238
301	16240
302	16242
302	16244
302	16246
302	16248
301	16250
301	16252
302	16254
301	16256
301	16258
301	16260
301	16262
301	16264
300	16266
299	16268
299	16270
299	16272
298	16274
298	16276
297	16278
297	16280
296	16282
296	16284
295	16286
295	16288
294	16290
294	16292
293	16294
293	16296
292	16299
292	16301
291	16303
291	16305
291	16307
291	16309
290	16311
290	16313
290	16315
289	16317
289	16319
289	16321
289	16323
289	16325
288	16327
288	16329
288	16331
288	16333
287	16335
287	16337
287	16339
287	16342
287	16344
286	16346
285	16348
285	16350
283	16352
282	16354
282	16356
281	16358
281	16360
282	16362
283	16364
285	16366
288	16368
290	16370
293	16372
296	16374
299	16376
303	16378
304	16380
305	16382
305	16384
304	16386
302	16388
300	16390
298	16392
295	16394
293	16396
291	16398
289	16400
289	16402
288	16404
288	16406
288	16408
288	16410
287	16412
288	16414
288	16416
287	16418
288	16420
287	16422
288	16424
288	16427
288	16429
288	16431
288	16433
288	16435
288	16437
288	16439
288	16441
289	16443
289	16445
289	16447
289	16449
289	16451
290	16453
290	16455
290	16457
290	16459
291	16461
291	16463
291	16465
291	16467
292	16470
292	16472
292	16474
293	16476
293	16478
293	16480
293	16482
293	16484
293	16486
294	16488
294	16490
295	16492
295	16494
295	16496
295	16498
295	16500
296	16502
296	16504
296	16506
297	16508
297	16510
297	16512
297	16514
297	16516
298	16518
298	16520
298	16522
299	16524
299	16526
299	16528
299	16530
299	16532
300	16534
300	16536
301	16538
301	16540
301	16542
301	16544
302	16546
302	16548
302	16550
302	16552
302	16555
303	16557
303	16559
304	16561
304	16563
304	16565
305	16567
305	16569
305	16571
305	16573
306	16575
306	16577
306	16579
306	16581
307	16583
307	16585
307	16587
307	16589
307	16591
307	16593
308	16595
307	16598
307	16600
308	16602
308	16604
308	16606
308	16608
308	16610
308	16612
307	16614
307	16616
307	16618
307	16620
307	16622
306	16624
306	16626
305	16628
305	16630
305	16632
304	16634
304	16636
303	16638
303	16640
302	16642
302	16644
302	16646
301	16648
301	16650
300	16652
300	16654
299	16656
299	16658
299	16660
298	16662
298	16664
298	16666
297	16668
297	16670
297	16672
297	16674
297	16676
296	16678
296	16680
296	16683
296	16685
296	16687
295	16689
295	16691
295	16693
295	16695
295	16697
295	16699
294	16701
294	16703
294	16705
294	16707
295	16709
294	16711
294	16713
294	16715
294	16717
294	16719
294	16721
293	16723
294	16726
293	16728
293	16730
293	16732
293	16734
293	16736
293	16738
293	16740
293	16742
293	16744
293	16746
293	16748
293	16750
293	16752
293	16754
294	16756
294	16758
294	16760
294	16762
295	16764
295	16766
296	16768
296	16770
296	16772
297	16774
297	16776
297	16778
298	16780
298	16782
298	16784
299	16786
299	16788
299	16790
300	16792
300	16794
301	16796
301	16798
301	16800
302	16802
302	16804
302	16806
302	16808
302	16811
302	16813
302	16815
302	16817
302	16819
302	16821
302	16823
301	16825
301	16827
301	16829
300	16831
299	16833
299	16835
298	16837
298	16839
297	16841
297	16843
297	16845
296	16847
295	16849
295	16851
294	16854
294	16856
293	16858
293	16860
292	16862
292	16864
291	16866
291	16868
291	16870
291	16872
290	16874
290	16876
290	16878
289	16880
289	16882
289	16884
288	16886
288	16888
288	16890
288	16892
288	16894
287	16896
288	16898
287	16900
288	16902
287	16904
287	16906
287	16908
286	16910
285	16912
284	16914
282	16916
281	16918
281	16920
280	16922
281	16924
281	16926
283	16928
286	16930
288	16932
290	16934
293	16936
296	16939
298	16941
301	16943
302	16945
303	16947
302	16949
301	16951
299	16953
296	16955
294	16957
292	16959
290	16961
288	16963
288	16965
287	16967
287	16969
287	16971
286	16973
287	16975
286	16977
287	16979
287	16982
286	16984
287	16986
287	16988
287	16990
287	16992
287	16994
287	16996
287	16998
287	17000
288	17002
287	17004
288	17006
289	17008
289	17010
289	17012
289	17014
289	17016
289	17018
289	17020
290	17022
290	17024
290	17026
290	17028
290	17030
291	17032
291	17034
291	17036
291	17038
291	17040
292	17042
292	17044
292	17046
292	17048
293	17050
293	17052
293	17054
294	17056
294	17058
294	17060
295	17062
295	17064
295	17067
295	17069
295	17071
296	17073
296	17075
297	17077
297	17079
297	17081
297	17083
297	17085
298	17087
298	17089
298	17091
298	17093
299	17095
299	17097
299	17099
299	17101
300	17103
300	17105
300	17107
300	17110
301	17112
301	17114
301	17116
301	17118
302	17120
302	17122
302	17124
303	17126
303	17128
303	17130
303	17132
303	17134
303	17136
304	17138
304	17140
304	17142
305	17144
305	17146
305	17148
306	17150
305	17152
306	17154
306	17156
306	17158
306	17160
306	17162
306	17164
306	17166
306	17168
306	17170
306	17172
306	17174
306	17176
306	17178
306	17180
305	17182
305	17184
305	17186
304	17188
304	17190
304	17192
303	17195
303	17197
302	17199
302	17201
301	17203
301	17205
301	17207
300	17209
300	17211
299	17213
299	17215
298	17217
298	17219
298	17221
298	17223
297	17225
297	17227
297	17229
297	17231
296	17233
296	17235
296	17238
296	17240
296	17242
296	17244
296	17246
295	17248
295	17250
295	17252
295	17254
294	17256
295	17258
295	17260
295	17262
294	17264
294	17266
294	17268
294	17270
294	17272
294	17274
294	17276
294	17278
294	17280
294	17282
294	17284
294	17286
294	17288
294	17290
294	17292
294	17294
294	17296
294	17298
294	17300
294	17302
295	17304
295	17306
295	17308
296	17310
296	17312
296	17314
297	17316
297	17318
297	17320
298	17323
298	17325
298	17327
299	17329
299	17331
300	17333
300	17335
300	17337
301	17339
301	17341
302	17343
302	17345
302	17347
303	17349
302	17351
303	17353
303	17355
303	17357
303	17359
303	17361
303	17363
303	17366
303	17368
302	17370
302	17372
301	17374
301	17376
301	17378
300	17380
300	17382
299	17384
298	17386
298	17388
298	17390
297	17392
296	17394
296	17396
295	17398
295	17400
294	17402
294	17404
293	17406
293	17408
293	17410
292	17412
292	17414
291	17416
290	17418
290	17420
290	17422
290	17424
289	17426
289	17428
289	17430
289	17432
288	17434
288	17436
288	17438
288	17440
288	17442
287	17444
287	17446
287	17448
287	17451
286	17453
286	17455
285	17457
284	17459
283	17461
282	17463
281	17465
280	17467
280	17469
281	17471
282	17473
284	17475
286	17477
288	17479
291	17481
293	17483
296	17485
298	17487
300	17489
301	17491
300	17494
299	17496
298	17498
295	17500
293	17502
291	17504
289	17506
288	17508
287	17510
286	17512
286	17514
286	17516
285	17518
286	17520
286	17522
286	17524
286	17526
286	17528
286	17530
286	17532
286	17534
286	17536
286	17538
287	17540
287	17542
287	17544
287	17546
287	17548
288	17550
288	17552
288	17554
288	17556
288	17558
289	17560
289	17562
289	17564
289	17566
289	17568
289	17570
290	17572
290	17574
290	17576
290	17579
290	17581
291	17583
291	17585
291	17587
291	17589
292	17591
292	17593
292	17595
293	17597
293	17599
293	17601
293	17603
294	17605
294	17607
294	17609
294	17611
295	17613
295	17615
295	17617
296	17619
296	17622
296	17624
296	17626
297	17628
297	17630
297	17632
297	17634
298	17636
298	17638
298	17640
298	17642
299	17644
299	17646
299	17648
299	17650
300	17652
300	17654
300	17656
300	17658
301	17660
301	17662
301	17664
301	17666
301	17668
302	17670
302	17672
302	17674
302	17676
303	17678
303	17680
303	17682
303	17684
304	17686
304	17688
304	17690
304	17692
304	17694
304	17696
304	17698
305	17700
305	17702
305	17704
305	17707
306	17709
306	17711
306	17713
306	17715
306	17717
306	17719
305	17721
305	17723
306	17725
305	17727
305	17729
305	17731
304	17733
304	17735
303	17737
303	17739
303	17741
303	17743
302	17745
302	17747
302	17750
301	17752
301	17754
300	17756
300	17758
300	17760
299	17762
299	17764
299	17766
299	17768
298	17770
298	17772
298	17774
297	17776
297	17778
297	17780
297	17782
296	17784
297	17786
296	17788
296	17790
296	17792
296	17794
296	17796
296	17798
296	17800
296	17802
296	17804
296	17806
295	17808
296	17810
296	17812
295	17814
295	17816
295	17818
295	17820
295	17822
295	17824
295	17826
295	17828
295	17830
295	17832
295	17835
296	17837
296	17839
296	17841
296	17843
297	17845
297	17847
298	17849
298	17851
298	17853
299	17855
299	17857
299	17859
300	17861
300	17863
300	17865
301	17867
301	17869
302	17871
302	17873
302	17875
303	17878
303	17880
304	17882
304	17884
304	17886
304	17888
304	17890
304	17892
304	17894
304	17896
304	17898
304	17900
303	17902
303	17904
303	17906
302	17908
302	17910
301	17912
301	17914
300	17916
300	17918
300	17920
299	17922
299	17924
298	17926
297	17928
297	17930
296	17932
295	17934
295	17936
294	17938
294	17940
294	17942
293	17944
293	17946
292	17948
292	17950
291	17952
291	17954
291	17956
290	17958
290	17960
290	17963
290	17965
289	17967
289	17969
289	17971
288	17973
288	17975
288	17977
288	17979
288	17981
288	17983
287	17985
287	17987
286	17989
286	17991
284	17993
283	17995
283	17997
282	17999
280	18001
280	18003
281	18006
282	18008
283	18010
285	18012
288	18014
290	18016
292	18018
295	18020
297	18022
299	18024
300	18026
300	18028
299	18030
297	18032
295	18034
293	18036
291	18038
289	18040
288	18042
287	18044
287	18046
286	18048
287	18050
287	18052
287	18054
287	18056
287	18058
287	18060
287	18062
287	18064
287	18066
287	18068
287	18070
287	18072
287	18074
288	18076
288	18078
288	18080
288	18082
288	18084
288	18086
288	18088
289	18091
289	18093
289	18095
289	18097
290	18099
290	18101
290	18103
290	18105
290	18107
290	18109
291	18111
291	18113
291	18115
291	18117
292	18119
292	18121
292	18123
292	18125
293	18127
293	18129
293	18131
293	18134
294	18136
294	18138
294	18140
294	18142
295	18144
295	18146
295	18148
296	18150
296	18152
296	18154
296	18156
296	18158
297	18160
297	18162
298	18164
298	18166
298	18168
298	18170
298	18172
298	18174
299	18176
299	18178
299	18180
300	18182
300	18184
300	18186
300	18188
300	18190
301	18192
301	18194
302	18196
302	18198
302	18200
302	18202
302	18204
302	18206
303	18208
303	18210
303	18212
304	18214
304	18216
304	18219
304	18221
304	18223
305	18225
305	18227
305	18229
305	18231
305	18233
305	18235
305	18237
305	18239
306	18241
306	18243
306	18245
306	18247
306	18249
306	18251
306	18253
306	18255
306	18257
306	18259
305	18262
305	18264
305	18266
304	18268
304	18270
304	18272
303	18274
303	18276
303	18278
303	18280
302	18282
302	18284
301	18286
301	18288
300	18290
300	18292
300	18294
300	18296
300	18298
299	18300
299	18302
299	18304
298	18306
298	18308
298	18310
298	18312
298	18314
297	18316
297	18318
297	18320
297	18322
297	18324
297	18326
297	18328
296	18330
296	18332
296	18334
296	18336
296	18338
296	18340
296	18342
296	18344
296	18347
295	18349
296	18351
296	18353
296	18355
296	18357
296	18359
296	18361
296	18363
296	18365
296	18367
296	18369
297	18371
297	18373
297	18375
298	18377
298	18379
299	18381
299	18383
299	18385
300	18387
300	18390
300	18392
301	18394
301	18396
301	18398
302	18400
302	18402
303	18404
303	18406
303	18408
304	18410
304	18412
304	18414
305	18416
304	18418
304	18420
304	18422
304	18424
304	18426
304	18428
304	18430
304	18432
304	18434
303	18436
303	18438
302	18440
302	18442
302	18444
301	18446
301	18448
300	18450
299	18452
299	18454
298	18456
298	18458
297	18460
297	18462
297	18464
296	18466
295	18468
295	18470
294	18472
294	18475
293	18477
293	18479
292	18481
292	18483
292	18485
291	18487
291	18489
291	18491
291	18493
290	18495
290	18497
290	18499
289	18501
289	18503
289	18505
289	18507
289	18509
289	18511
289	18513
288	18515
288	18518
287	18520
286	18522
285	18524
284	18526
283	18528
282	18530
281	18532
281	18534
282	18536
282	18538
284	18540
286	18542
288	18544
291	18546
293	18548
295	18550
298	18552
299	18554
300	18556
299	18558
299	18560
298	18562
296	18564
293	18566
292	18568
290	18570
289	18572
288	18574
288	18576
287	18578
287	18580
287	18582
287	18584
287	18586
287	18588
287	18590
287	18592
288	18594
287	18596
287	18598
288	18600
287	18603
288	18605
288	18607
288	18609
289	18611
289	18613
289	18615
289	18617
289	18619
289	18621
289	18623
290	18625
290	18627
290	18629
290	18631
291	18633
291	18635
291	18637
292	18639
292	18641
292	18643
292	18646
293	18648
293	18650
293	18652
293	18654
293	18656
294	18658
294	18660
294	18662
294	18664
295	18666
295	18668
295	18670
296	18672
296	18674
296	18676
297	18678
297	18680
297	18682
297	18684
297	18686
298	18688
298	18690
299	18692
299	18694
299	18696
299	18698
299	18700
300	18702
300	18704
300	18706
301	18708
301	18710
301	18712
302	18714
302	18716
302	18718
302	18720
302	18722
303	18724
303	18726
304	18728
304	18731
304	18733
304	18735
304	18737
304	18739
305	18741
305	18743
305	18745
306	18747
305	18749
305	18751
306	18753
306	18755
306	18757
307	18759
306	18761
307	18763
307	18765
307	18767
308	18769
308	18771
308	18774
308	18776
308	18778
308	18780
308	18782
308	18784
308	18786
307	18788
307	18790
307	18792
307	18794
307	18796
307	18798
306	18800
306	18802
305	18804
305	18806
305	18808
304	18810
304	18812
304	18814
304	18816
303	18818
302	18820
302	18822
302	18824
301	18826
301	18828
301	18830
301	18832
300	18834
300	18836
300	18838
299	18840
299	18842
299	18844
299	18846
299	18848
298	18850
298	18852
298	18854
297	18856
297	18859
297	18861
297	18863
297	18865
297	18867
297	18869
297	18871
297	18873
297	18875
297	18877
297	18879
297	18881
297	18883
296	18885
297	18887
297	18889
297	18891
297	18893
297	18895
297	18897
298	18899
298	18902
298	18904
299	18906
299	18908
300	18910
300	18912
300	18914
301	18916
301	18918
301	18920
302	18922
302	18924
302	18926
303	18928
303	18930
303	18932
303	18934
303	18936
304	18938
304	18940
305	18942
305	18944
305	18946
305	18948
305	18950
305	18952
305	18954
304	18956
304	18958
304	18960
304	18962
304	18964
303	18966
303	18968
302	18970
302	18972
301	18974
301	18976
300	18978
300	18980
299	18982
299	18984
298	18987
297	18989
297	18991
296	18993
296	18995
296	18997
294	18999
294	19001
294	19003
293	19005
293	19007
292	19009
292	19011
292	19013
291	19015
291	19017
291	19019
290	19021
290	19023
290	19025
290	19027
289	19030
289	19032
289	19034
288	19036
288	19038
288	19040
288	19042
288	19044
288	19046
287	19048
286	19050
285	19052
284	19054
282	19056
282	19058
281	19060
280	19062
281	19064
282	19066
283	19068
285	19070
286	19072
288	19074
291	19076
294	19078
296	19080
299	19082
300	19084
300	19086
299	19088
298	19090
297	19092
295	19094
292	19096
291	19098
289	19100
288	19102
288	19104
287	19106
287	19108
287	19110
287	19112
287	19115
287	19117
287	19119
288	19121
287	19123
287	19125
288	19127
288	19129
288	19131
288	19133
288	19135
288	19137
289	19139
289	19141
289	19143
289	19145
289	19147
290	19149
290	19151
290	19153
290	19155
290	19158
290	19160
291	19162
291	19164
291	19166
291	19168
291	19170
291	19172
292	19174
292	19176
292	19178
292	19180
293	19182
293	19184
293	19186
293	19188
293	19190
294	19192
294	19194
294	19196
294	19198
294	19200
295	19202
295	19204
295	19206
296	19208
296	19210
296	19212
296	19214
296	19216
297	19218
297	19220
297	19222
297	19224
298	19226
298	19228
298	19230
299	19232
299	19234
299	19236
299	19238
300	19240
300	19243
300	19245
301	19247
300	19249
301	19251
301	19253
301	19255
302	19257
302	19259
302	19261
303	19263
303	19265
303	19267
304	19269
303	19271
304	19273
304	19275
304	19277
304	19279
304	19281
304	19283
305	19286
305	19288
305	19290
305	19292
305	19294
306	19296
306	19298
306	19300
306	19302
306	19304
306	19306
306	19308
306	19310
306	19312
306	19314
306	19316
306	19318
305	19320
305	19322
305	19324
305	19326
305	19328
304	19330
304	19332
304	19334
303	19336
303	19338
303	19340
302	19342
302	19344
302	19346
301	19348
301	19350
301	19352
300	19354
300	19356
299	19358
300	19360
299	19362
299	19364
299	19366
298	19368
298	19371
298	19373
298	19375
298	19377
298	19379
297	19381
297	19383
297	19385
297	19387
296	19389
296	19391
297	19393
297	19395
297	19397
297	19399
296	19401
296	19403
296	19405
296	19407
296	19409
296	19411
296	19414
296	19416
296	19418
296	19420
296	19422
296	19424
296	19426
296	19428
296	19430
297	19432
297	19434
297	19436
298	19438
298	19440
299	19442
299	19444
299	19446
300	19448
300	19450
300	19452
301	19454
301	19456
301	19458
302	19460
302	19462
302	19464
303	19466
303	19468
303	19470
303	19472
304	19474
304	19476
304	19478
304	19480
304	19482
304	19484
305	19486
304	19488
305	19490
304	19492
304	19494
304	19496
304	19499
303	19501
303	19503
302	19505
302	19507
301	19509
301	19511
301	19513
300	19515
300	19517
299	19519
298	19521
297	19523
297	19525
296	19527
296	19529
296	19531
295	19533
295	19535
294	19537
294	19539
293	19542
293	19544
293	19546
292	19548
292	19550
291	19552
291	19554
291	19556
290	19558
290	19560
290	19562
290	19564
289	19566
289	19568
289	19570
289	19572
289	19574
288	19576
288	19578
288	19580
288	19582
287	19584
286	19586
285	19588
284	19590
282	19592
281	19594
281	19596
280	19598
280	19600
281	19602
283	19604
284	19606
286	19608
289	19610
292	19612
295	19614
298	19616
300	19618
301	19620
301	19622
300	19624
299	19627
297	19629
295	19631
293	19633
292	19635
291	19637
290	19639
289	19641
289	19643
289	19645
288	19647
288	19649
288	19651
288	19653
288	19655
288	19657
288	19659
288	19661
288	19663
289	19665
288	19667
289	19670
289	19672
289	19674
289	19676
289	19678
289	19680
290	19682
289	19684
290	19686
290	19688
290	19690
290	19692
290	19694
291	19696
291	19698
291	19700
291	19702
291	19704
292	19706
292	19708
292	19710
292	19712
293	19714
293	19716
293	19718
293	19720
293	19722
294	19724
294	19726
294	19728
294	19730
295	19732
295	19734
295	19736
295	19738
295	19740
295	19742
296	19744
296	19746
296	19748
296	19750
297	19752
297	19755
297	19757
297	19759
297	19761
298	19763
298	19765
298	19767
299	19769
299	19771
299	19773
299	19775
300	19777
300	19779
300	19781
300	19783
301	19785
301	19787
301	19789
302	19791
302	19793
302	19795
302	19798
302	19800
303	19802
302	19804
303	19806
303	19808
303	19810
304	19812
304	19814
304	19816
304	19818
304	19820
304	19822
305	19824
305	19826
305	19828
305	19830
305	19832
306	19834
306	19836
306	19838
306	19840
306	19842
306	19844
306	19846
306	19848
306	19850
306	19852
306	19854
305	19856
305	19858
305	19860
305	19862
305	19864
304	19866
304	19868
304	19870
303	19872
303	19874
303	19876
302	19878
302	19880
302	19883
301	19885
301	19887
300	19889
300	19891
300	19893
300	19895
299	19897
299	19899
299	19901
298	19903
298	19905
298	19907
297	19909
297	19911
297	19913
297	19915
297	19917
297	19919
297	19921
296	19923
296	19926
296	19928
296	19930
296	19932
296	19934
295	19936
295	19938
295	19940
295	19942
295	19944
295	19946
295	19948
295	19950
294	19952
295	19954
295	19956
295	19958
295	19960
295	19962
295	19964
295	19966
295	19968
295	19970
295	19972
296	19974
296	19976
296	19978
297	19980
297	19982
298	19984
298	19986
298	19988
299	19990
299	19992
300	19994
300	19996
300	19998
301	20000
301	20002
301	20004
302	20006
302	20008
302	20011
303	20013
303	20015
303	20017
304	20019
303	20021
304	20023
303	20025
303	20027
304	20029
303	20031
303	20033
303	20035
303	20037
302	20039
302	20041
302	20043
301	20045
301	20047
300	20049
300	20051
299	20054
298	20056
298	20058
297	20060
297	20062
296	20064
296	20066
295	20068
295	20070
294	20072
293	20074
293	20076
293	20078
292	20080
291	20082
291	20084
291	20086
290	20088
290	20090
290	20092
290	20094
289	20096
289	20098
289	20100
288	20102
288	20104
288	20106
287	20108
288	20110
288	20112
288	20114
287	20116
287	20118
287	20120
287	20122
286	20124
285	20126
284	20128
282	20130
281	20132
280	20134
279	20136
279	20139
279	20141
280	20143
281	20145
283	20147
286	20149
288	20151
292	20153
295	20155
298	20157
300	20159
301	20161
302	20163
301	20165
300	20167
297	20169
296	20171
293	20173
292	20175
290	20177
290	20179
289	20182
289	20184
288	20186
288	20188
288	20190
288	20192
288	20194
288	20196
288	20198
288	20200
288	20202
289	20204
288	20206
289	20208
289	20210
289	20212
289	20214
289	20216
289	20218
289	20220
289	20222
289	20224
289	20226
289	20228
290	20230
290	20232
290	20234
290	20236
290	20238
290	20240
291	20242
291	20244
291	20246
291	20248
292	20250
292	20252
292	20254
292	20256
293	20258
293	20260
293	20262
293	20264
294	20267
294	20269
294	20271
295	20273
295	20275
295	20277
296	20279
296	20281
296	20283
296	20285
296	20287
296	20289
297	20291
297	20293
297	20295
298	20297
298	20299
298	20301
298	20303
298	20305
299	20307
299	20310
299	20312
299	20314
300	20316
300	20318
300	20320
300	20322
301	20324
301	20326
301	20328
302	20330
302	20332
302	20334
302	20336
302	20338
303	20340
303	20342
303	20344
304	20346
304	20348
304	20350
304	20352
304	20354
304	20356
304	20358
305	20360
305	20362
305	20364
306	20366
305	20368
306	20370
306	20372
306	20374
306	20376
306	20378
306	20380
307	20382
306	20384
306	20386
306	20388
306	20390
306	20392
306	20395
305	20397
305	20399
305	20401
304	20403
304	20405
304	20407
304	20409
303	20411
303	20413
303	20415
302	20417
301	20419
301	20421
300	20423
300	20425
300	20427
299	20429
299	20431
299	20433
298	20435
298	20438
298	20440
297	20442
297	20444
297	20446
297	20448
296	20450
296	20452
296	20454
295	20456
295	20458
296	20460
295	20462
295	20464
295	20466
295	20468
295	20470
294	20472
294	20474
294	20476
294	20478
294	20480
294	20482
294	20484
294	20486
294	20488
294	20490
294	20492
294	20494
294	20496
293	20498
294	20500
294	20502
293	20504
294	20506
293	20508
293	20510
294	20512
293	20514
293	20516
293	20518
293	20520
293	20523
294	20525
294	20527
295	20529
295	20531
295	20533
296	20535
296	20537
296	20539
297	20541
297	20543
298	20545
298	20547
298	20549
299	20551
299	20553
299	20555
300	20557
300	20559
301	20561
301	20563
301	20566
302	20568
302	20570
302	20572
303	20574
303	20576
303	20578
303	20580
303	20582
303	20584
303	20586
302	20588
303	20590
302	20592
302	20594
302	20596
301	20598
301	20600
300	20602
300	20604
299	20606
299	20608
299	20610
298	20612
297	20614
297	20616
296	20618
296	20620
295	20622
294	20624
294	20626
293	20628
293	20630
292	20632
292	20634
292	20636
291	20638
291	20640
291	20642
290	20644
289	20646
290	20648
289	20651
289	20653
289	20655
288	20657
288	20659
288	20661
288	20663
288	20665
288	20667
287	20669
287	20671
287	20673
287	20675
286	20677
286	20679
285	20681
283	20683
282	20685
281	20687
280	20689
280	20691
279	20694
279	20696
281	20698
283	20700
285	20702
289	20704
291	20706
295	20708
298	20710
302	20712
304	20714
305	20716
304	20718
303	20720
302	20722
299	20724
297	20726
295	20728
293	20730
292	20732
291	20734
291	20736
291	20738
290	20740
290	20742
290	20744
290	20746
290	20748
290	20750
289	20752
289	20754
289	20756
289	20758
289	20760
290	20762
289	20764
289	20766
289	20768
289	20770
289	20772
290	20774
289	20776
290	20779
290	20781
290	20783
290	20785
290	20787
290	20789
290	20791
290	20793
291	20795
291	20797
291	20799
292	20801
292	20803
292	20805
292	20807
292	20809
293	20811
293	20813
293	20815
294	20817
293	20819
294	20822
294	20824
294	20826
295	20828
295	20830
296	20832
296	20834
296	20836
296	20838
296	20840
296	20842
297	20844
297	20846
297	20848
298	20850
298	20852
298	20854
299	20856
299	20858
299	20860
299	20862
300	20864
300	20866
300	20868
300	20870
301	20872
301	20874
301	20876
301	20878
301	20880
302	20882
302	20884
303	20886
303	20888
303	20890
303	20892
303	20894
304	20896
304	20898
304	20900
305	20902
305	20904
305	20907
305	20909
305	20911
306	20913
306	20915
306	20917
306	20919
306	20921
306	20923
307	20925
307	20927
307	20929
307	20931
307	20933
307	20935
308	20937
307	20939
307	20941
307	20943
307	20945
307	20947
306	20950
306	20952
306	20954
305	20956
305	20958
305	20960
305	20962
305	20964
304	20966
304	20968
304	20970
303	20972
302	20974
302	20976
302	20978
301	20980
301	20982
300	20984
300	20986
299	20988
299	20990
299	20992
298	20994
298	20996
298	20998
298	21000
297	21002
297	21004
297	21006
297	21008
297	21010
297	21012
296	21014
296	21016
296	21018
296	21020
296	21022
296	21024
295	21026
295	21028
295	21030
295	21032
295	21035
294	21037
295	21039
295	21041
294	21043
295	21045
294	21047
294	21049
294	21051
294	21053
294	21055
294	21057
294	21059
294	21061
294	21063
294	21065
294	21067
294	21069
294	21071
294	21073
294	21075
294	21078
294	21080
294	21082
295	21084
295	21086
295	21088
296	21090
296	21092
297	21094
297	21096
297	21098
298	21100
298	21102
298	21104
299	21106
299	21108
299	21110
300	21112
300	21114
301	21116
301	21118
301	21120
301	21122
301	21124
302	21126
302	21128
303	21130
303	21132
303	21134
303	21136
303	21138
303	21140
303	21142
303	21144
303	21146
303	21148
303	21150
303	21152
302	21154
301	21156
301	21158
300	21160
300	21163
300	21165
298	21167
298	21169
297	21171
296	21173
296	21175
296	21177
295	21179
295	21181
294	21183
294	21185
293	21187
293	21189
292	21191
292	21193
291	21195
291	21197
291	21199
290	21201
291	21203
290	21206
289	21208
289	21210
289	21212
289	21214
288	21216
288	21218
288	21220
287	21222
287	21224
287	21226
287	21228
287	21230
287	21232
286	21234
286	21236
285	21238
284	21240
283	21242
282	21244
280	21246
280	21248
279	21250
279	21252
279	21254
280	21256
282	21258
284	21260
287	21262
290	21264
293	21266
297	21268
301	21270
303	21272
304	21274
305	21276
304	21278
302	21280
301	21282
298	21284
296	21286
294	21288
293	21291
292	21293
291	21295
290	21297
290	21299
290	21301
290	21303
290	21305
290	21307
289	21309
290	21311
290	21313
289	21315
290	21317
290	21319
289	21321
289	21323
289	21325
289	21327
290	21329
290	21331
290	21334
290	21336
290	21338
290	21340
290	21342
290	21344
291	21346
291	21348
291	21350
291	21352
291	21354
291	21356
291	21358
292	21360
292	21362
292	21364
293	21366
293	21368
293	21370
293	21372
293	21374
294	21376
294	21378
294	21380
294	21382
294	21384
294	21386
295	21388
295	21390
295	21392
295	21394
296	21396
296	21398
296	21400
296	21402
296	21404
297	21406
297	21408
297	21410
297	21412
298	21414
298	21416
298	21419
298	21421
298	21423
299	21425
299	21427
299	21429
300	21431
300	21433
300	21435
301	21437
300	21439
301	21441
301	21443
302	21445
302	21447
302	21449
302	21451
303	21453
303	21455
303	21457
303	21459
304	21462
304	21464
304	21466
304	21468
304	21470
304	21472
304	21474
305	21476
305	21478
305	21480
305	21482
306	21484
306	21486
306	21488
306	21490
306	21492
306	21494
306	21496
306	21498
306	21500
306	21502
305	21504
305	21506
305	21508
305	21510
305	21512
304	21514
304	21516
304	21518
303	21520
303	21522
302	21524
302	21526
302	21528
301	21530
301	21532
301	21534
300	21536
300	21538
299	21540
299	21542
299	21544
299	21547
298	21549
298	21551
298	21553
297	21555
296	21557
296	21559
296	21561
296	21563
296	21565
296	21567
296	21569
296	21571
295	21573
295	21575
295	21577
295	21579
295	21581
295	21583
295	21585
294	21587
294	21590
294	21592
294	21594
294	21596
294	21598
294	21600
294	21602
293	21604
294	21606
293	21608
293	21610
293	21612
293	21614
293	21616
293	21618
293	21620
293	21622
293	21624
293	21626
293	21628
293	21630
293	21632
293	21634
293	21636
293	21638
293	21640
294	21642
293	21644
294	21646
294	21648
295	21650
295	21652
295	21654
296	21656
296	21658
296	21660
296	21662
297	21664
297	21666
297	21668
298	21670
298	21672
299	21675
299	21677
299	21679
300	21681
300	21683
300	21685
300	21687
301	21689
301	21691
301	21693
301	21695
302	21697
302	21699
301	21701
301	21703
301	21705
301	21707
301	21709
300	21711
300	21713
300	21715
300	21718
299	21720
299	21722
298	21724
298	21726
297	21728
297	21730
296	21732
296	21734
295	21736
294	21738
294	21740
294	21742
293	21744
293	21746
292	21748
292	21750
292	21752
291	21754
291	21756
290	21758
290	21760
290	21762
290	21764
289	21766
289	21768
289	21770
288	21772
288	21774
288	21776
288	21778
287	21780
287	21782
287	21784
286	21786
287	21788
286	21790
286	21792
286	21794
285	21796
284	21798
283	21800
282	21803
281	21805
280	21807
279	21809
279	21811
280	21813
281	21815
283	21817
285	21819
287	21821
290	21823
293	21825
297	21827
300	21829
302	21831
304	21833
303	21835
303	21837
301	21839
298	21841
297	21843
294	21846
292	21848
291	21850
290	21852
289	21854
289	21856
288	21858
288	21860
288	21862
288	21864
288	21866
288	21868
288	21870
288	21872
288	21874
288	21876
288	21878
288	21880
288	21882
288	21884
288	21886
288	21888
288	21890
288	21892
288	21894
289	21896
289	21898
289	21900
289	21902
289	21904
289	21906
289	21908
289	21910
290	21912
290	21914
290	21916
290	21918
290	21920
291	21922
291	21924
291	21926
291	21928
292	21931
292	21933
292	21935
293	21937
292	21939
293	21941
293	21943
294	21945
294	21947
294	21949
294	21951
295	21953
295	21955
295	21957
296	21959
296	21961
296	21963
296	21965
296	21967
297	21969
297	21971
297	21974
298	21976
298	21978
298	21980
298	21982
298	21984
299	21986
299	21988
299	21990
300	21992
300	21994
300	21996
301	21998
301	22000
302	22002
302	22004
302	22006
303	22008
303	22010
303	22012
303	22014
304	22016
304	22018
304	22020
304	22022
304	22024
304	22026
305	22028
305	22030
305	22032
305	22034
305	22036
306	22038
306	22040
306	22042
306	22044
306	22046
307	22048
307	22050
307	22052
307	22054
307	22056
307	22059
307	22061
306	22063
306	22065
306	22067
306	22069
305	22071
305	22073
305	22075
304	22077
304	22079
304	22081
304	22083
303	22085
303	22087
302	22089
302	22091
301	22093
301	22095
301	22097
300	22099
300	22102
299	22104
299	22106
298	22108
298	22110
298	22112
298	22114
298	22116
297	22118
297	22120
297	22122
296	22124
296	22126
296	22128
296	22130
296	22132
295	22134
295	22136
295	22138
295	22140
295	22142
295	22144
295	22146
295	22148
294	22150
294	22152
294	22154
294	22156
294	22158
294	22160
294	22162
293	22164
294	22166
293	22168
294	22170
294	22172
294	22174
294	22176
294	22178
294	22180
294	22182
294	22184
294	22187
293	22189
293	22191
294	22193
294	22195
294	22197
294	22199
294	22201
295	22203
295	22205
295	22207
296	22209
296	22211
297	22213
297	22215
297	22217
298	22219
298	22221
298	22223
299	22225
299	22227
300	22230
300	22232
300	22234
301	22236
301	22238
301	22240
302	22242
302	22244
302	22246
303	22248
302	22250
303	22252
302	22254
302	22256
303	22258
302	22260
302	22262
302	22264
302	22266
302	22268
301	22270
301	22272
300	22274
300	22276
300	22278
299	22280
299	22282
298	22284
297	22286
297	22288
296	22290
296	22292
295	22294
295	22296
294	22298
294	22300
293	22302
293	22304
292	22306
292	22308
291	22310
291	22312
291	22315
291	22317
290	22319
290	22321
289	22323
289	22325
289	22327
289	22329
288	22331
288	22333
288	22335
288	22337
287	22339
287	22341
287	22343
287	22345
287	22347
287	22349
286	22351
285	22353
285	22355
284	22358
282	22360
282	22362
281	22364
280	22366
280	22368
280	22370
281	22372
283	22374
285	22376
288	22378
290	22380
292	22382
295	22384
298	22386
300	22388
301	22390
300	22392
300	22394
299	22396
297	22398
295	22400
293	22402
291	22404
288	22406
287	22408
286	22410
286	22412
286	22414
285	22416
285	22418
286	22420
285	22422
285	22424
285	22426
285	22428
285	22430
286	22432
286	22434
286	22436
286	22438
286	22440
286	22443
286	22445
287	22447
287	22449
287	22451
287	22453
288	22455
288	22457
288	22459
288	22461
289	22463
289	22465
289	22467
289	22469
290	22471
290	22473
290	22475
290	22477
291	22479
291	22481
291	22483
291	22486
292	22488
292	22490
292	22492
292	22494
293	22496
293	22498
293	22500
293	22502
294	22504
294	22506
294	22508
294	22510
294	22512
295	22514
295	22516
296	22518
296	22520
296	22522
297	22524
297	22526
297	22528
297	22530
298	22532
298	22534
298	22536
299	22538
299	22540
299	22542
299	22544
299	22546
300	22548
301	22550
300	22552
300	22554
301	22556
301	22558
301	22560
302	22562
302	22564
303	22566
303	22568
303	22571
303	22573
303	22575
304	22577
304	22579
304	22581
305	22583
305	22585
305	22587
305	22589
305	22591
305	22593
306	22595
306	22597
306	22599
306	22601
306	22603
307	22605
306	22607
306	22609
307	22611
306	22614
307	22616
306	22618
306	22620
307	22622
306	22624
306	22626
306	22628
305	22630
305	22632
304	22634
304	22636
304	22638
303	22640
303	22642
303	22644
302	22646
302	22648
302	22650
301	22652
301	22654
300	22656
300	22658
300	22660
299	22662
299	22664
299	22666
299	22668
298	22670
298	22672
297	22674
297	22676
297	22678
297	22680
296	22682
296	22684
296	22686
296	22688
296	22690
295	22692
295	22694
295	22696
295	22699
295	22701
295	22703
295	22705
295	22707
295	22709
295	22711
295	22713
295	22715
294	22717
295	22719
294	22721
294	22723
295	22725
294	22727
294	22729
294	22731
294	22733
294	22735
294	22737
294	22739
294	22742
294	22744
294	22746
294	22748
294	22750
295	22752
295	22754
295	22756
296	22758
296	22760
296	22762
297	22764
297	22766
298	22768
298	22770
298	22772
299	22774
299	22776
299	22778
300	22780
300	22782
300	22784
301	22786
301	22788
302	22790
302	22792
302	22794
302	22796
303	22798
303	22800
303	22802
303	22804
303	22806
303	22808
303	22810
303	22812
303	22814
303	22816
302	22818
302	22820
301	22822
301	22824
300	22827
300	22829
299	22831
299	22833
298	22835
297	22837
297	22839
296	22841
296	22843
295	22845
295	22847
295	22849
294	22851
293	22853
293	22855
292	22857
291	22859
291	22861
291	22863
290	22865
290	22867
289	22870
289	22872
289	22874
288	22876
288	22878
288	22880
288	22882
288	22884
287	22886
287	22888
287	22890
286	22892
287	22894
286	22896
286	22898
286	22900
286	22902
285	22904
284	22906
283	22908
282	22910
282	22912
281	22914
281	22916
280	22918
280	22920
281	22922
283	22924
284	22926
287	22928
289	22930
292	22932
294	22934
297	22936
299	22938
300	22940
301	22942
300	22944
299	22946
297	22948
294	22950
292	22952
290	22955
289	22957
288	22959
287	22961
287	22963
286	22965
286	22967
286	22969
286	22971
286	22973
286	22975
286	22977
286	22979
286	22981
286	22983
286	22985
286	22987
286	22989
287	22991
286	22993
287	22995
287	22998
287	23000
288	23002
287	23004
287	23006
288	23008
288	23010
288	23012
288	23014
288	23016
289	23018
289	23020
289	23022
290	23024
290	23026
290	23028
290	23030
291	23032
291	23034
292	23036
292	23038
292	23040
292	23042
293	23044
293	23046
293	23048
293	23050
293	23052
293	23054
294	23056
294	23058
294	23060
295	23062
295	23064
296	23066
295	23068
296	23070
296	23072
296	23074
296	23076
297	23078
297	23080
298	23083
298	23085
298	23087
298	23089
298	23091
299	23093
299	23095
299	23097
300	23099
300	23101
300	23103
301	23105
301	23107
301	23109
302	23111
302	23113
302	23115
302	23117
302	23119
303	23121
303	23123
303	23126
304	23128
304	23130
304	23132
305	23134
304	23136
305	23138
305	23140
305	23142
305	23144
305	23146
305	23148
306	23150
306	23152
306	23154
306	23156
306	23158
306	23160
306	23162
306	23164
306	23166
306	23168
306	23170
306	23172
306	23174
305	23176
305	23178
305	23180
305	23182
305	23184
304	23186
304	23188
304	23190
303	23192
303	23194
302	23196
302	23198
302	23200
302	23202
301	23204
301	23206
301	23208
300	23211
300	23213
300	23215
299	23217
299	23219
298	23221
298	23223
298	23225
298	23227
298	23229
297	23231
297	23233
297	23235
297	23237
296	23239
296	23241
296	23243
296	23245
296	23247
296	23249
296	23251
296	23254
296	23256
296	23258
295	23260
295	23262
295	23264
295	23266
296	23268
295	23270
295	23272
295	23274
295	23276
295	23278
295	23280
295	23282
295	23284
296	23286
295	23288
295	23290
296	23292
296	23294
296	23296
296	23298
297	23300
297	23302
298	23304
298	23306
298	23308
299	23310
299	23312
299	23314
299	23316
300	23318
300	23320
301	23322
301	23324
302	23326
302	23328
303	23330
303	23332
303	23334
304	23336
304	23339
304	23341
305	23343
305	23345
305	23347
305	23349
305	23351
305	23353
305	23355
304	23357
304	23359
304	23361
304	23363
304	23365
303	23367
302	23369
302	23371
301	23373
301	23375
300	23377
300	23379
299	23382
299	23384
298	23386
298	23388
297	23390
296	23392
296	23394
295	23396
295	23398
295	23400
294	23402
294	23404
293	23406
292	23408
292	23410
292	23412
291	23414
291	23416
291	23418
290	23420
290	23422
290	23424
290	23426
290	23428
289	23430
289	23432
289	23434
289	23436
288	23438
289	23440
288	23442
288	23444
288	23446
287	23448
287	23450
286	23452
284	23454
284	23456
283	23458
282	23460
281	23462
281	23464
283	23467
284	23469
286	23471
288	23473
291	23475
293	23477
296	23479
298	23481
300	23483
302	23485
302	23487
301	23489
299	23491
297	23493
295	23495
293	23497
291	23499
290	23501
289	23503
288	23505
287	23507
287	23510
287	23512
287	23514
287	23516
287	23518
287	23520
288	23522
288	23524
288	23526
288	23528
288	23530
288	23532
288	23534
288	23536
288	23538
289	23540
289	23542
289	23544
289	23546
290	23548
289	23550
289	23552
290	23554
290	23556
290	23558
291	23560
291	23562
291	23564
291	23566
292	23568
292	23570
292	23572
292	23574
292	23576
292	23578
292	23580
293	23582
293	23584
293	23586
293	23588
294	23590
294	23592
294	23595
294	23597
295	23599
295	23601
295	23603
296	23605
295	23607
296	23609
296	23611
296	23613
297	23615
297	23617
297	23619
297	23621
298	23623
298	23625
298	23627
299	23629
299	23631
299	23633
300	23635
300	23638
300	23640
300	23642
300	23644
300	23646
301	23648
301	23650
302	23652
302	23654
302	23656
302	23658
303	23660
303	23662
303	23664
304	23666
303	23668
304	23670
304	23672
304	23674
304	23676
305	23678
305	23680
304	23682
305	23684
305	23686
305	23688
305	23690
306	23692
306	23694
306	23696
306	23698
307	23700
307	23702
307	23704
307	23706
307	23708
307	23710
307	23712
307	23714
306	23716
307	23718
306	23720
306	23723
306	23725
306	23727
305	23729
305	23731
305	23733
305	23735
304	23737
304	23739
303	23741
303	23743
303	23745
302	23747
302	23749
301	23751
301	23753
300	23755
300	23757
300	23759
300	23761
300	23763
299	23766
298	23768
299	23770
298	23772
298	23774
298	23776
298	23778
297	23780
297	23782
297	23784
297	23786
297	23788
297	23790
297	23792
296	23794
297	23796
296	23798
297	23800
297	23802
296	23804
297	23806
296	23808
296	23810
296	23812
296	23814
296	23816
296	23818
296	23820
296	23822
296	23824
296	23826
296	23828
296	23830
296	23832
296	23834
296	23836
296	23838
296	23840
297	23842
297	23844
298	23846
298	23848
299	23851
299	23853
299	23855
299	23857
300	23859
300	23861
300	23863
301	23865
301	23867
302	23869
302	23871
302	23873
303	23875
303	23877
304	23879
304	23881
304	23883
305	23885
305	23887
305	23889
305	23891
305	23894
305	23896
305	23898
305	23900
305	23902
305	23904
304	23906
304	23908
304	23910
303	23912
302	23914
302	23916
302	23918
301	23920
301	23922
300	23924
300	23926
299	23928
298	23930
298	23932
297	23934
297	23936
297	23938
296	23940
295	23942
295	23944
295	23946
294	23948
294	23950
294	23952
293	23954
292	23956
292	23958
292	23960
291	23962
291	23964
291	23966
291	23968
290	23970
290	23972
290	23974
289	23976
289	23979
289	23981
289	23983
288	23985
288	23987
288	23989
288	23991
287	23993
287	23995
286	23997
284	23999
284	24001
283	24003
282	24005
281	24007
281	24009
281	24011
283	24013
285	24015
287	24017
289	24019
292	24022
295	24024
298	24026
300	24028
302	24030
302	24032
302	24034
301	24036
299	24038
297	24040
295	24042
293	24044
292	24046
290	24048
290	24050
289	24052
289	24054
289	24056
289	24058
288	24060
289	24062
288	24064
289	24066
289	24068
289	24070
288	24072
288	24074
289	24076
289	24078
288	24080
289	24082
289	24084
289	24086
289	24088
289	24090
290	24092
289	24094
290	24096
290	24098
290	24100
290	24102
291	24104
291	24107
291	24109
291	24111
291	24113
291	24115
292	24117
292	24119
292	24121
292	24123
292	24125
293	24127
293	24129
293	24131
294	24133
294	24135
294	24137
294	24139
295	24141
295	24143
295	24145
295	24147
296	24150
295	24152
296	24154
296	24156
296	24158
297	24160
297	24162
297	24164
297	24166
298	24168
298	24170
298	24172
298	24174
299	24176
299	24178
299	24180
299	24182
300	24184
300	24186
300	24188
300	24190
301	24192
301	24194
301	24196
302	24198
302	24200
302	24202
302	24204
303	24206
303	24208
303	24210
304	24212
304	24214
304	24216
304	24218
304	24220
304	24222
305	24224
305	24226
305	24228
305	24230
305	24232
306	24235
306	24237
306	24239
307	24241
307	24243
306	24245
307	24247
307	24249
307	24251
307	24253
307	24255
307	24257
306	24259
306	24261
306	24263
306	24265
306	24267
305	24269
305	24271
305	24273
305	24275
304	24278
304	24280
304	24282
303	24284
303	24286
302	24288
302	24290
302	24292
301	24294
301	24296
300	24298
300	24300
300	24302
300	24304
299	24306
299	24308
298	24310
299	24312
298	24314
298	24316
298	24318
298	24320
297	24322
297	24324
297	24326
297	24328
297	24330
296	24332
297	24334
297	24336
297	24338
296	24340
296	24342
296	24344
296	24346
296	24348
296	24350
296	24352
296	24354
295	24356
296	24358
295	24360
295	24363
296	24365
295	24367
295	24369
295	24371
295	24373
295	24375
295	24377
295	24379
295	24381
296	24383
296	24385
297	24387
296	24389
297	24391
297	24393
298	24395
298	24397
299	24399
299	24401
299	24403
299	24406
300	24408
300	24410
301	24412
301	24414
302	24416
302	24418
303	24420
303	24422
303	24424
303	24426
304	24428
304	24430
304	24432
304	24434
305	24436
305	24438
304	24440
304	24442
304	24444
304	24446
304	24448
304	24450
304	24452
303	24454
302	24456
302	24458
301	24460
301	24462
300	24464
300	24466
299	24468
299	24470
298	24472
297	24474
297	24476
296	24478
296	24480
295	24482
295	24484
294	24486
294	24488
293	24491
293	24493
293	24495
292	24497
292	24499
291	24501
291	24503
290	24505
290	24507
290	24509
289	24511
289	24513
289	24515
289	24517
289	24519
288	24521
288	24523
288	24525
287	24527
288	24529
287	24531
287	24534
287	24536
286	24538
285	24540
284	24542
283	24544
282	24546
281	24548
280	24550
280	24552
280	24554
281	24556
282	24558
284	24560
287	24562
289	24564
292	24566
295	24568
298	24570
300	24572
301	24574
302	24576
301	24578
300	24580
298	24582
296	24584
294	24586
292	24588
291	24590
289	24592
289	24594
288	24596
288	24598
288	24600
288	24602
288	24604
288	24606
288	24608
288	24610
288	24612
288	24614
288	24616
288	24619
289	24621
288	24623
288	24625
288	24627
288	24629
289	24631
289	24633
289	24635
289	24637
289	24639
289	24641
290	24643
290	24645
290	24647
290	24649
290	24651
290	24653
290	24655
290	24657
291	24659
291	24662
291	24664
291	24666
292	24668
292	24670
292	24672
292	24674
292	24676
292	24678
293	24680
293	24682
294	24684
294	24686
294	24688
294	24690
295	24692
295	24694
295	24696
295	24698
296	24700
296	24702
296	24704
296	24706
297	24708
297	24710
297	24712
297	24714
297	24716
298	24718
298	24720
298	24722
299	24724
299	24726
299	24728
300	24730
300	24732
301	24734
300	24736
301	24738
302	24740
301	24742
302	24744
302	24747
302	24749
303	24751
303	24753
303	24755
303	24757
303	24759
304	24761
304	24763
304	24765
305	24767
305	24769
305	24771
306	24773
306	24775
305	24777
306	24779
306	24781
306	24783
306	24785
306	24787
307	24790
307	24792
306	24794
307	24796
306	24798
306	24800
306	24802
306	24804
306	24806
306	24808
306	24810
306	24812
305	24814
305	24816
305	24818
304	24820
304	24822
304	24824
303	24826
303	24828
302	24830
302	24832
302	24834
302	24836
301	24838
301	24840
301	24842
300	24844
300	24846
300	24848
300	24850
299	24852
299	24854
298	24856
298	24858
298	24860
298	24862
297	24864
297	24866
297	24868
297	24870
296	24872
296	24875
296	24877
296	24879
296	24881
296	24883
296	24885
296	24887
295	24889
295	24891
295	24893
295	24895
295	24897
295	24899
295	24901
295	24903
295	24905
295	24907
295	24909
295	24911
295	24913
295	24915
295	24918
295	24920
295	24922
295	24924
295	24926
295	24928
296	24930
296	24932
297	24934
297	24936
298	24938
298	24940
298	24942
299	24944
299	24946
299	24948
300	24950
300	24952
301	24954
301	24956
301	24958
301	24960
302	24962
302	24964
303	24966
303	24968
303	24970
304	24972
304	24974
304	24976
304	24978
304	24980
304	24982
304	24984
304	24986
304	24988
304	24990
303	24992
303	24994
303	24996
302	24998
302	25000
301	25003
301	25005
300	25007
299	25009
299	25011
298	25013
298	25015
297	25017
297	25019
296	25021
296	25023
295	25025
294	25027
294	25029
293	25031
293	25033
293	25035
292	25037
292	25039
291	25041
291	25043
291	25046
290	25048
290	25050
289	25052
289	25054
289	25056
288	25058
288	25060
288	25062
288	25064
287	25066
287	25068
287	25070
287	25072
287	25074
287	25076
287	25078
286	25080
285	25082
284	25084
282	25086
282	25088
281	25090
280	25092
279	25094
279	25096
280	25098
281	25100
283	25102
285	25104
288	25106
291	25108
294	25110
297	25112
301	25114
302	25116
302	25118
302	25120
300	25122
298	25124
296	25126
294	25128
292	25131
291	25133
290	25135
290	25137
289	25139
289	25141
289	25143
288	25145
288	25147
288	25149
288	25151
288	25153
288	25155
288	25157
288	25159
288	25161
288	25163
289	25165
289	25167
289	25169
289	25171
289	25174
289	25176
289	25178
289	25180
289	25182
289	25184
289	25186
290	25188
290	25190
290	25192
290	25194
290	25196
290	25198
290	25200
291	25202
291	25204
291	25206
291	25208
292	25210
292	25212
292	25214
292	25216
292	25218
293	25220
293	25222
293	25224
293	25226
294	25228
294	25230
294	25232
295	25234
295	25236
295	25238
296	25240
295	25242
296	25244
296	25246
296	25248
297	25250
297	25252
297	25254
297	25256
297	25259
298	25261
298	25263
298	25265
299	25267
299	25269
299	25271
300	25273
300	25275
300	25277
301	25279
301	25281
301	25283
302	25285
302	25287
302	25289
302	25291
303	25293
304	25295
303	25297
304	25299
304	25302
304	25304
304	25306
305	25308
305	25310
305	25312
305	25314
306	25316
306	25318
306	25320
306	25322
307	25324
306	25326
306	25328
307	25330
307	25332
307	25334
307	25336
307	25338
307	25340
307	25342
307	25344
306	25346
307	25348
306	25350
306	25352
306	25354
305	25356
305	25358
305	25360
304	25362
304	25364
304	25366
303	25368
303	25370
302	25372
302	25374
302	25376
301	25378
301	25380
301	25382
300	25384
300	25387
299	25389
299	25391
299	25393
299	25395
298	25397
298	25399
298	25401
298	25403
297	25405
297	25407
297	25409
296	25411
296	25413
296	25415
296	25417
296	25419
296	25421
296	25423
296	25425
295	25427
295	25430
295	25432
295	25434
295	25436
295	25438
295	25440
295	25442
295	25444
295	25446
295	25448
295	25450
295	25452
295	25454
295	25456
294	25458
294	25460
295	25462
295	25464
295	25466
296	25468
296	25470
296	25472
296	25474
297	25476
297	25478
298	25480
298	25482
299	25484
