1496	2
1498	5
1499	7
1499	9
1498	11
1497	14
1498	16
1502	18
1506	21
1510	23
1509	25
1504	27
1498	30
1497	32
1495	34
1497	37
1499	39
1498	41
1497	45
1498	47
1499	49
1501	51
1504	54
1502	56
1500	58
1498	61
1496	63
1494	65
1492	68
1491	70
1491	72
1492	75
1493	77
1493	79
1493	81
1494	84
1495	87
1498	89
1500	92
1500	94
1500	96
1499	99
1498	101
1498	103
1496	106
1494	108
1493	110
1492	113
1493	115
1493	117
1493	120
1491	122
1489	124
1488	128
1491	130
1493	132
1492	135
1491	137
1491	140
1491	142
1492	144
1494	147
1496	149
1498	151
1499	154
1497	156
1495	158
1494	161
1494	163
1495	165
1499	168
1504	171
1505	173
1502	176
1496	178
1492	181
1492	183
1495	185
1499	188
1503	190
1502	192
1499	195
1498	197
1497	199
1497	202
1496	204
1494	206
1493	209
1492	211
1492	215
1494	217
1496	219
1499	222
1500	224
1502	226
1501	229
1499	231
1499	233
1500	236
1500	238
1498	240
1495	243
1492	245
1492	247
1493	250
1493	252
1493	256
1494	258
1495	260
1497	263
1495	265
1494	267
1494	270
1494	272
1496	274
1496	277
1494	279
1493	281
1492	284
1491	286
1490	288
1493	291
1498	293
1503	296
1504	299
1503	301
1502	304
1501	306
1501	308
1504	311
1506	313
1507	315
1508	318
1506	320
1499	322
1494	325
1490	327
1492	329
1496	332
1498	334
1499	337
1501	339
1501	342
1501	345
1498	347
1494	349
1491	352
1491	354
1492	356
1493	359
1494	361
1493	363
1494	366
1495	368
1493	371
1490	373
1488	375
1490	378
1493	380
1494	382
1493	386
1491	388
1489	390
1486	393
1485	395
1482	397
1478	400
1478	402
1486	404
1496	407
1500	409
1499	412
1494	414
1490	416
1488	419
1486	421
1484	423
1485	427
1486	429
1487	431
1488	434
1487	436
1488	438
1490	441
1491	443
1491	445
1492	448
1492	450
1490	453
1488	455
1486	457
1485	460
1484	462
1483	464
1482	467
1481	470
1484	472
1486	475
1487	477
1487	479
1489	482
1491	484
1491	487
1491	489
1491	491
1489	494
1486	496
1484	498
1485	501
1490	503
1495	505
1498	508
1499	510
1497	513
1497	516
1497	518
1497	520
1497	523
1497	525
1497	528
1496	530
1496	532
1497	535
1497	537
1496	539
1494	542
1492	544
1492	546
1493	549
1492	551
1492	553
1493	557
1494	559
1494	561
1492	564
1490	566
1490	569
1492	571
1493	573
1495	576
1495	578
1493	580
1491	583
1490	585
1491	587
1493	590
1495	592
1496	594
1495	598
1494	600
1493	603
1492	605
1490	607
1488	610
1485	612
1483	614
1483	617
1484	619
1488	621
1494	624
1496	626
1495	628
1493	631
1492	633
1491	636
1491	638
1491	641
1490	644
1485	646
1482	648
1483	651
1485	653
1488	655
1488	658
1489	660
1491	662
1492	665
1494	667
1493	669
1490	672
1488	674
1484	677
1481	679
1480	681
1484	685
1491	687
1495	689
1495	692
1494	694
1494	696
1496	699
1495	701
1491	703
1487	706
1484	708
1483	710
1482	713
1483	715
1485	718
1487	720
1488	722
1490	726
1491	728
1492	730
1493	733
1494	735
1496	737
1497	740
1494	742
1490	744
1489	747
1489	749
1490	752
1492	754
1494	756
1496	759
1497	761
1498	763
1497	766
1495	769
1493	771
1491	774
1491	776
1491	778
1492	781
1492	783
1490	785
1488	788
1488	790
1488	793
1488	795
1488	797
1490	800
1492	802
1493	804
1493	807
1495	809
1497	812
1497	815
1496	817
1494	819
1497	822
1501	824
1503	826
1503	829
1498	831
1493	834
1488	836
1486	838
1488	841
1489	843
1490	845
1491	848
1492	850
1492	852
1493	856
1494	858
1496	860
1497	863
1499	865
1498	868
1498	870
1499	872
1500	875
1501	877
1501	879
1497	882
1495	884
1495	886
1496	889
1495	891
1496	893
1496	897
1495	899
1493	901
1492	904
1491	906
1494	909
1494	911
1492	913
1491	916
1493	918
1495	920
1496	923
1495	925
1496	927
1494	930
1492	932
1490	934
1490	937
1492	940
1494	942
1494	945
1490	947
1485	950
1484	952
1485	954
1489	957
1493	959
1493	961
1493	964
1492	966
1491	968
1491	971
1492	973
1492	975
1492	978
1491	980
1489	984
1488	986
1490	988
1496	991
1502	993
1507	995
1507	998
1502	1000
1497	1002
1493	1005
1489	1007
1485	1010
1485	1012
1488	1014
1492	1017
1494	1019
1494	1022
1493	1025
1492	1027
1492	1030
1495	1032
1498	1035
1498	1037
1495	1039
1494	1042
1493	1044
1494	1047
1492	1049
1491	1052
1491	1054
1492	1056
1495	1059
1496	1061
1498	1064
1497	1067
1495	1069
1494	1072
1494	1074
1492	1077
1492	1079
1491	1081
1490	1084
1489	1086
1491	1089
1493	1091
1495	1093
1495	1096
1492	1098
1491	1101
1493	1103
1497	1105
1501	1108
1503	1111
1502	1114
1499	1116
1499	1118
1501	1121
1502	1123
1501	1126
1498	1128
1495	1130
1494	1133
1494	1135
1496	1138
1497	1140
1498	1143
1498	1145
1497	1147
1497	1150
1498	1153
1499	1156
1500	1158
1499	1160
1499	1163
1495	1165
1490	1168
1491	1170
1500	1172
1508	1175
1509	1177
1507	1180
1504	1182
1501	1184
1500	1187
1500	1189
1502	1192
1504	1195
1506	1197
1505	1200
1504	1202
1502	1205
1501	1207
1500	1209
1501	1212
1504	1214
1506	1217
1504	1219
1501	1222
1501	1224
1503	1226
1506	1229
1506	1231
1503	1234
1500	1236
1498	1239
1496	1242
1494	1244
1493	1247
1493	1249
1493	1251
1493	1254
1497	1256
1500	1259
1502	1261
1504	1263
1505	1266
1504	1268
1502	1271
1500	1273
1498	1275
1498	1278
1499	1281
1499	1284
1498	1286
1494	1288
1490	1291
1488	1293
1490	1296
1493	1298
1494	1301
1492	1303
1491	1305
1493	1308
1496	1310
1498	1313
1499	1315
1498	1317
1498	1320
1498	1323
1499	1326
1499	1328
1499	1330
1499	1333
1499	1335
1497	1338
1497	1340
1498	1342
1501	1345
1503	1347
1505	1350
1504	1352
1503	1354
1501	1357
1498	1359
1496	1362
1493	1364
1493	1367
1495	1370
1497	1372
1499	1375
1499	1377
1500	1379
1501	1382
1500	1384
1498	1387
1496	1389
1493	1391
1490	1394
1489	1396
1490	1399
1492	1401
1492	1404
1493	1406
1494	1409
1494	1412
1494	1414
1494	1417
1494	1419
1495	1421
1495	1424
1495	1426
1495	1429
1494	1431
1493	1433
1492	1436
1489	1438
1487	1441
1487	1443
1490	1445
1491	1448
1491	1451
1491	1454
1493	1456
1494	1458
1495	1461
1495	1463
1495	1466
1496	1468
1497	1470
1497	1473
1498	1475
1497	1478
1496	1480
1497	1482
1496	1485
1492	1487
1488	1490
1485	1492
1485	1496
1486	1498
1487	1500
1486	1503
1487	1505
1486	1508
1487	1510
1488	1512
1491	1515
1492	1517
1493	1520
1490	1522
1489	1524
1494	1527
1499	1529
1498	1532
1497	1534
1497	1537
1497	1540
1500	1542
1502	1545
1500	1547
1497	1549
1492	1552
1490	1554
1489	1557
1489	1559
1493	1561
1496	1564
1495	1566
1492	1569
1491	1571
1489	1574
1491	1576
1491	1579
1492	1582
1492	1584
1493	1587
1493	1589
1493	1591
1492	1594
1491	1596
1493	1599
1495	1601
1498	1603
1501	1606
1498	1608
1497	1611
1499	1613
1498	1615
1497	1618
1495	1620
1493	1624
1494	1626
1494	1628
1494	1631
1497	1633
1498	1636
1496	1638
1492	1640
1489	1643
1488	1645
1489	1648
1490	1650
1491	1652
1494	1655
1496	1657
1497	1660
1500	1662
1503	1665
1504	1668
1503	1670
1499	1673
1498	1675
1497	1678
1497	1680
1496	1682
1497	1685
1498	1687
1493	1690
1488	1692
1485	1694
1489	1697
1494	1699
1495	1702
1494	1704
1492	1707
1490	1710
1491	1712
1493	1715
1494	1717
1494	1719
1494	1722
1494	1724
1498	1727
1503	1729
1502	1731
1501	1734
1499	1736
1497	1739
1495	1741
1490	1743
1486	1746
1486	1748
1489	1752
1490	1754
1489	1756
1486	1759
1486	1761
1490	1764
1490	1766
1486	1768
1485	1771
1482	1773
1481	1776
1482	1778
1484	1781
1487	1783
1489	1785
1489	1788
1489	1790
1490	1794
1491	1796
1492	1798
1492	1801
1491	1803
1488	1806
1487	1808
1488	1810
1490	1813
1489	1815
1487	1818
1486	1820
1486	1822
1487	1825
1488	1827
1489	1830
1489	1832
1487	1835
1485	1838
1486	1840
1490	1843
1494	1845
1494	1847
1492	1850
1492	1852
1492	1855
1492	1857
1491	1859
1490	1862
1489	1864
1490	1867
1489	1869
1488	1871
1487	1874
1488	1876
1491	1880
1496	1882
1499	1885
1499	1887
1498	1889
1496	1892
1494	1894
1494	1897
1495	1899
1496	1901
1498	1904
1501	1906
1504	1909
1506	1911
1507	1913
1504	1916
1501	1918
1499	1922
1495	1924
1492	1926
1492	1929
1493	1931
1496	1934
1497	1936
1498	1938
1495	1941
1492	1943
1492	1946
1494	1948
1497	1950
1500	1953
1501	1955
1503	1958
1504	1960
1507	1964
1512	1966
1514	1968
1511	1971
1508	1973
1506	1976
1506	1978
1507	1980
1506	1983
1504	1985
1504	1988
1504	1990
1508	1992
1514	1995
1521	1997
1524	2000
1523	2002
1519	2004
1516	2008
1513	2010
1511	2013
1509	2015
1507	2017
1508	2020
1507	2022
1505	2025
1501	2027
1498	2029
1497	2032
1497	2034
1497	2037
1497	2039
1497	2041
1499	2044
1501	2046
1503	2050
1504	2052
1504	2055
1505	2057
1505	2059
1507	2062
1506	2064
1504	2067
1501	2069
1499	2071
1501	2074
1503	2076
1499	2079
1495	2081
1494	2083
1497	2086
1498	2088
1497	2092
1495	2094
1492	2096
1490	2099
1490	2101
1490	2104
1490	2106
1489	2108
1489	2111
1490	2113
1491	2116
1489	2118
1487	2120
1486	2123
1488	2125
1492	2128
1494	2130
1494	2132
1493	2136
1494	2138
1497	2141
1499	2143
1498	2146
1495	2148
1494	2150
1493	2153
1492	2155
1491	2158
1491	2160
1492	2162
1492	2165
1491	2167
1492	2170
1492	2172
1491	2174
1489	2178
1487	2180
1485	2183
1486	2185
1488	2187
1491	2190
1491	2192
1491	2195
1489	2197
1487	2199
1486	2202
1484	2204
1482	2207
1481	2209
1482	2211
1483	2214
1483	2216
1484	2220
1485	2222
1484	2224
1482	2227
1481	2229
1483	2232
1490	2234
1494	2237
1496	2239
1494	2241
1492	2244
1491	2246
1489	2249
1486	2251
1482	2253
1480	2256
1481	2258
1485	2262
1487	2264
1486	2266
1483	2269
1482	2271
1483	2274
1484	2276
1484	2278
1483	2281
1482	2283
1483	2286
1485	2288
1486	2290
1487	2293
1486	2295
1486	2298
1487	2300
1486	2302
1488	2306
1491	2308
1495	2311
1496	2313
1493	2315
1489	2318
1492	2320
1495	2323
1498	2325
1498	2328
1496	2330
1491	2332
1489	2335
1492	2337
1496	2340
1497	2342
1496	2344
1495	2348
1495	2350
1495	2353
1494	2355
1492	2357
1491	2360
1491	2362
1491	2365
1492	2367
1492	2369
1492	2372
1493	2374
1492	2377
1491	2379
1492	2381
1496	2384
1500	2386
1502	2390
1503	2392
1502	2394
1502	2397
1502	2399
1504	2402
1504	2404
1502	2407
1499	2409
1497	2411
1497	2414
1497	2416
1497	2419
1495	2421
1492	2423
1488	2426
1487	2428
1489	2432
1492	2434
1496	2436
1498	2439
1498	2441
1498	2444
1497	2446
1497	2448
1498	2451
1499	2453
1497	2456
1498	2458
1499	2460
1500	2463
1499	2465
1498	2468
1496	2470
1494	2472
1490	2476
1490	2478
1491	2481
1492	2483
1492	2485
1492	2488
1495	2490
1499	2493
1500	2495
1495	2498
1490	2500
1486	2502
1489	2505
1494	2507
1497	2510
1497	2512
1495	2514
1492	2518
1488	2520
1484	2523
1483	2525
1486	2527
1486	2530
1484	2532
1483	2535
1485	2537
1488	2539
1491	2542
1491	2544
1490	2547
1487	2549
1484	2551
1481	2554
1481	2556
1482	2560
1485	2562
1486	2564
1487	2567
1488	2569
1488	2572
1487	2574
1487	2576
1486	2579
1486	2581
1488	2584
1489	2586
1490	2589
1491	2591
1490	2593
1489	2596
1488	2598
1488	2601
1488	2604
1489	2606
1489	2609
1489	2611
1488	2614
1487	2616
1488	2618
1489	2621
1488	2623
1487	2626
1487	2628
1487	2630
1488	2633
1488	2635
1489	2638
1489	2640
1490	2642
1491	2646
1491	2648
1492	2651
1492	2653
1493	2655
1494	2658
1496	2660
1494	2663
1495	2665
1496	2667
1498	2670
1501	2672
1502	2675
1502	2677
1500	2679
1496	2682
1494	2684
1494	2688
1496	2690
1499	2693
1500	2695
1499	2697
1497	2700
1496	2702
1494	2705
1493	2707
1491	2709
1490	2712
1490	2714
1492	2717
1496	2719
1497	2721
1498	2724
1497	2726
1498	2729
1498	2732
1497	2734
1497	2737
1497	2739
1496	2742
1496	2744
1495	2746
1496	2749
1498	2751
1499	2754
1500	2756
1500	2758
1500	2761
1502	2763
1503	2766
1503	2768
1502	2770
1502	2774
1502	2776
1499	2779
1496	2781
1497	2784
1501	2786
1502	2788
1503	2791
1502	2793
1501	2796
1500	2798
1497	2800
1496	2803
1496	2805
1498	2808
1498	2810
1498	2812
1497	2816
1497	2818
1497	2821
1498	2823
1498	2825
1499	2828
1498	2830
1497	2833
1497	2835
1497	2837
1498	2840
1498	2842
1498	2845
1496	2847
1494	2849
1494	2852
1493	2854
1493	2857
1492	2860
1492	2863
1493	2865
1494	2867
1495	2870
1495	2872
1494	2875
1496	2877
1500	2879
1504	2882
1504	2884
1502	2887
1498	2889
1497	2891
1501	2894
1505	2896
1507	2899
1505	2902
1501	2904
1497	2907
1496	2909
1496	2912
1495	2914
1495	2916
1492	2919
1489	2921
1487	2924
1486	2926
1488	2928
1490	2931
1490	2933
1489	2936
1489	2938
1489	2940
1490	2944
1491	2946
1491	2949
1491	2951
1493	2954
1497	2956
1501	2958
1503	2961
1501	2963
1498	2966
1495	2968
1491	2970
1487	2973
1486	2975
1487	2978
1488	2980
1486	2982
1485	2985
1485	2988
1487	2991
1488	2993
1489	2995
1491	2998
1493	3000
1493	3003
1492	3005
1491	3007
1491	3010
1491	3012
1492	3015
1496	3017
1498	3019
1499	3022
1498	3024
1496	3027
1493	3030
1491	3033
1490	3035
1489	3037
1488	3040
1488	3042
1489	3045
1489	3047
1489	3049
1489	3052
1490	3054
1491	3057
1493	3059
1494	3061
1494	3064
1494	3066
1497	3069
1496	3072
1495	3074
1491	3077
1487	3079
1486	3082
1490	3084
1493	3086
1493	3089
1493	3091
1494	3094
1495	3096
1495	3098
1496	3101
1497	3103
1497	3106
1498	3108
1499	3111
1502	3113
1506	3116
1507	3119
1506	3121
1504	3124
1502	3126
1501	3128
1499	3131
1497	3133
1496	3136
1495	3138
1494	3140
1492	3143
1489	3145
1487	3148
1485	3150
1485	3152
1490	3155
1493	3158
1494	3161
1494	3163
1493	3165
1494	3168
1495	3170
1495	3173
1496	3175
1497	3178
1500	3180
1501	3182
1502	3185
1498	3187
1498	3190
1502	3192
1508	3194
1511	3197
1510	3200
1507	3203
1503	3205
1502	3207
1501	3210
1500	3212
1499	3215
1497	3217
1496	3219
1495	3222
1494	3224
1492	3227
1492	3229
1493	3231
1495	3234
1497	3236
1498	3239
1498	3241
1499	3244
1499	3247
1498	3249
1497	3252
1494	3254
1492	3256
1494	3259
1497	3261
1500	3264
1500	3266
1499	3269
1497	3271
1496	3273
1497	3276
1497	3278
1495	3281
1494	3283
1494	3286
1493	3289
1491	3291
1489	3294
1490	3296
1492	3298
1492	3301
1492	3303
1490	3306
1489	3308
1492	3310
1495	3313
1495	3315
1493	3318
1492	3320
1492	3322
1494	3325
1495	3328
1495	3331
1495	3333
1494	3335
1493	3338
1493	3340
1494	3343
1494	3345
1495	3347
1494	3350
1494	3352
1493	3355
1491	3357
1489	3360
1487	3362
1488	3364
1488	3367
1488	3369
1487	3373
1488	3375
1490	3377
1491	3380
1492	3382
1492	3385
1491	3387
1491	3389
1492	3392
1492	3394
1492	3397
1491	3399
1490	3401
1490	3404
1490	3406
1490	3409
1492	3411
1494	3414
1496	3417
1497	3419
1496	3422
1494	3424
1493	3426
1492	3429
1492	3431
1492	3434
1491	3436
1490	3439
1490	3441
1489	3443
1487	3446
1487	3448
1487	3451
1488	3453
1488	3456
1488	3459
1488	3461
1488	3464
1488	3466
1488	3468
1488	3471
1487	3473
1486	3476
1485	3478
1485	3480
1486	3483
1487	3485
1489	3488
1491	3490
1493	3492
1493	3495
1490	3497
1489	3501
1490	3503
1491	3505
1493	3508
1492	3510
1490	3513
1490	3515
1490	3518
1491	3520
1491	3522
1491	3525
1491	3527
1492	3530
1493	3532
1493	3534
1494	3537
1494	3539
1494	3543
1493	3545
1492	3547
1492	3550
1491	3552
1491	3555
1492	3557
1493	3559
1494	3562
1494	3564
1494	3567
1494	3569
1493	3571
1493	3574
1492	3576
1488	3579
1486	3581
1487	3584
1490	3587
1493	3589
1495	3592
1496	3594
1498	3596
1499	3599
1498	3601
1495	3604
1492	3606
1492	3609
1494	3611
1497	3613
1498	3616
1499	3618
1501	3621
1501	3623
1501	3625
1501	3629
1502	3631
1503	3634
1500	3636
1496	3638
1494	3641
1496	3643
1500	3646
1503	3648
1503	3650
1503	3653
1503	3655
1503	3658
1504	3660
1503	3662
1500	3665
1497	3667
1494	3671
1494	3673
1499	3675
1502	3678
1504	3680
1503	3683
1502	3685
1502	3687
1502	3690
1502	3692
1502	3695
1502	3697
1502	3700
1501	3702
1502	3704
1502	3707
1502	3709
1501	3713
1497	3715
1496	3717
1499	3720
1505	3722
1509	3725
1509	3727
1508	3729
1507	3732
1506	3734
1505	3737
1503	3739
1502	3741
1501	3744
1502	3746
1502	3749
1503	3751
1502	3753
1500	3757
1498	3759
1497	3762
1497	3764
1496	3767
1495	3769
1495	3771
1495	3774
1495	3776
1497	3779
1498	3781
1498	3783
1497	3786
1496	3788
1495	3791
1494	3793
1494	3795
1494	3799
1494	3801
1494	3804
1493	3806
1493	3808
1494	3811
1492	3813
1491	3816
1492	3818
1495	3820
1498	3823
1499	3825
1498	3828
1497	3830
1496	3832
1496	3835
1495	3837
1495	3841
1496	3843
1496	3846
1496	3848
1495	3850
1492	3853
1489	3855
1489	3858
1492	3860
1498	3862
1500	3865
1499	3867
1497	3870
1497	3872
1496	3874
1496	3877
1494	3879
1493	3883
1491	3885
1491	3887
1491	3890
1492	3892
1493	3895
1494	3897
1495	3899
1496	3902
1496	3904
1497	3907
1497	3909
1500	3911
1502	3914
1503	3916
1502	3919
1501	3921
1500	3923
1499	3927
1498	3929
1498	3932
1498	3934
1497	3937
1494	3939
1492	3941
1494	3944
1496	3946
1497	3949
1498	3951
1499	3953
1499	3956
1499	3958
1499	3961
1499	3963
1498	3965
1498	3969
1497	3971
1496	3974
1496	3976
1497	3978
1498	3981
1498	3983
1498	3986
1498	3988
1499	3990
1499	3993
1498	3995
1498	3998
1499	4000
1500	4002
1496	4005
1490	4007
1487	4011
1492	4013
1495	4015
1497	4018
1497	4020
1496	4023
1495	4025
1494	4028
1492	4030
1492	4032
1494	4035
1495	4037
1497	4040
1497	4042
1497	4044
1498	4047
1501	4049
1504	4052
1504	4055
1503	4057
1501	4060
1498	4062
1495	4065
1493	4067
1491	4069
1490	4072
1490	4074
1491	4077
1493	4079
1494	4081
1495	4084
1494	4086
1494	4089
1493	4091
1492	4093
1491	4097
1489	4099
1484	4102
1483	4104
1484	4106
1488	4109
1492	4111
1493	4114
1493	4116
1494	4119
1494	4121
1493	4123
1492	4126
1491	4128
1490	4131
1490	4133
1488	4135
1488	4139
1487	4141
1488	4144
1488	4146
1488	4148
1488	4151
1489	4153
1490	4156
1490	4158
1491	4160
1491	4163
1491	4165
1490	4168
1490	4170
1490	4172
1490	4175
1491	4177
1492	4180
1494	4183
1495	4185
1496	4188
1498	4190
1502	4193
1503	4195
1498	4198
1494	4200
1492	4202
1494	4205
1496	4207
1495	4210
1493	4212
1492	4214
1491	4217
1491	4219
1491	4222
1491	4225
1493	4227
1494	4230
1496	4232
1498	4235
1498	4237
1497	4239
1496	4242
1494	4244
1493	4247
1492	4249
1493	4251
1494	4254
1495	4256
1495	4259
1497	4261
1497	4263
1497	4267
1497	4269
1497	4272
1498	4274
1498	4277
1498	4279
1499	4281
1503	4284
1505	4286
1505	4289
1503	4291
1500	4293
1492	4296
1485	4298
1483	4301
1487	4303
1494	4305
1496	4308
1497	4311
1496	4314
1497	4316
1498	4318
1498	4321
1498	4323
1498	4326
1498	4328
1497	4330
1497	4333
1497	4335
1497	4338
1495	4340
1494	4342
1492	4345
1491	4347
1494	4350
1496	4353
1498	4356
1498	4358
1497	4360
1496	4363
1496	4365
1495	4368
1495	4370
1496	4372
1496	4375
1496	4377
1496	4380
1496	4382
1497	4384
1497	4387
1499	4389
1500	4392
1500	4395
1498	4397
1497	4400
1497	4402
1497	4405
1495	4407
1495	4409
1496	4412
1499	4414
1501	4417
1498	4419
1492	4422
1489	4424
1489	4426
1494	4429
1497	4431
1499	4434
1498	4436
1496	4439
1496	4442
1495	4444
1494	4447
1494	4449
1492	4451
1491	4454
1490	4456
1493	4459
1497	4461
1499	4463
1500	4466
1501	4468
1501	4471
1500	4473
1499	4475
1499	4478
1500	4481
1500	4484
1501	4486
1501	4489
1502	4491
1500	4493
1498	4496
1497	4498
1498	4501
1499	4503
1500	4505
1500	4508
1501	4510
1499	4513
1496	4515
1495	4517
1493	4520
1494	4523
1493	4526
1493	4528
1493	4530
1493	4533
1496	4535
1499	4538
1501	4540
1502	4542
1501	4545
1499	4547
1497	4550
1497	4552
1498	4554
1500	4557
1502	4559
1504	4562
1504	4564
1503	4568
1503	4570
1501	4572
1501	4575
1500	4577
1499	4580
1497	4582
1496	4584
1496	4587
1497	4589
1499	4592
1500	4594
1499	4596
1500	4599
1499	4601
1500	4604
1501	4606
1500	4609
1498	4612
1496	4614
1494	4617
1493	4619
1492	4621
1492	4624
1492	4626
1491	4629
1491	4631
1493	4633
1493	4636
1491	4638
1488	4641
1488	4643
1492	4646
1496	4648
1497	4651
1496	4654
1496	4656
1494	4659
1493	4661
1492	4663
1491	4666
1491	4668
1492	4671
1494	4673
1494	4675
1492	4678
1492	4680
1492	4683
1495	4685
1496	4687
1496	4690
1495	4692
1492	4696
1491	4698
1491	4700
1493	4703
1493	4705
1494	4708
1492	4710
1487	4713
1485	4715
1486	4717
1488	4720
1488	4722
1488	4725
1487	4727
1486	4729
1485	4732
1485	4734
1486	4738
1486	4740
1485	4742
1486	4745
1489	4747
1494	4750
1495	4752
1495	4754
1495	4757
1494	4759
1494	4762
1491	4764
1488	4766
1486	4769
1486	4771
1488	4774
1489	4776
1491	4779
1490	4782
1489	4784
1493	4787
1498	4789
1500	4792
1501	4794
1500	4796
1499	4799
1496	4801
1491	4804
1490	4806
1492	4808
1495	4811
1498	4813
1498	4816
1497	4818
1496	4820
1496	4824
1495	4826
1492	4829
1489	4831
1487	4833
1488	4836
1492	4838
1494	4841
1493	4843
1493	4845
1493	4848
1494	4850
1495	4853
1495	4855
1495	4857
1496	4860
1498	4862
1500	4866
1499	4868
1497	4870
1499	4873
1499	4875
1498	4878
1494	4880
1491	4883
1493	4885
1497	4887
1499	4890
1499	4892
1498	4895
1496	4897
1495	4899
1495	4902
1495	4904
1495	4908
1494	4910
1493	4912
1492	4915
1491	4917
1492	4920
1493	4922
1494	4924
1495	4927
1493	4929
1491	4932
1489	4934
1488	4936
1490	4939
1492	4941
1493	4944
1492	4946
1492	4948
1493	4952
1492	4954
1492	4957
1492	4959
1493	4962
1494	4964
1494	4966
1492	4969
1489	4971
1487	4974
1489	4976
1490	4978
1490	4981
1491	4983
1492	4986
1491	4988
1488	4990
1486	4994
1486	4996
1487	4999
1488	5001
1490	5003
1492	5006
1495	5008
1498	5011
1498	5013
1496	5015
1496	5018
1496	5020
1495	5023
1493	5025
1491	5027
1488	5030
1487	5032
1486	5036
1487	5038
1488	5041
1489	5043
1490	5045
1491	5048
1491	5050
1490	5053
1489	5055
1488	5057
1489	5060
1490	5062
1489	5065
1487	5067
1486	5069
1490	5072
1495	5074
1499	5078
1499	5080
1497	5082
1496	5085
1495	5087
1495	5090
1496	5092
1496	5094
1497	5097
1497	5099
1496	5102
1495	5104
1493	5106
1492	5109
1494	5111
1496	5114
1496	5116
1495	5120
1495	5122
1495	5124
1495	5127
1495	5129
1494	5132
1492	5134
1492	5136
1492	5139
1491	5141
1490	5144
1489	5146
1492	5148
1494	5151
1496	5153
1497	5156
1498	5158
1499	5160
1499	5164
1496	5166
1495	5169
1495	5171
1497	5173
1497	5176
1498	5178
1498	5181
1497	5183
1499	5185
1500	5188
1499	5190
1500	5193
1502	5195
1504	5197
1504	5200
1501	5202
1498	5206
1496	5208
1496	5211
1496	5213
1495	5215
1496	5218
1497	5220
1495	5223
1492	5225
1490	5227
1492	5230
1496	5232
1497	5235
1496	5237
1494	5239
1494	5242
1494	5244
1494	5248
1494	5250
1495	5252
1494	5255
1494	5257
1495	5260
1494	5262
1495	5264
1495	5267
1492	5269
1491	5272
1491	5274
1491	5276
1491	5279
1489	5281
1490	5284
1491	5286
1492	5288
1494	5292
1494	5294
1493	5297
1491	5299
1493	5302
1495	5304
1498	5306
1497	5309
1497	5311
1499	5314
1499	5316
1499	5318
1498	5321
1495	5323
1491	5326
1487	5328
1484	5330
1484	5334
1485	5336
1486	5339
1487	5341
1489	5343
1490	5346
1489	5348
1487	5351
1487	5353
1489	5355
1491	5358
1492	5360
1494	5363
1495	5365
1495	5367
1494	5370
1493	5372
1490	5376
1488	5378
1486	5381
1486	5383
1487	5385
1491	5388
1494	5390
1496	5393
1494	5395
1491	5397
1489	5400
1487	5402
1486	5405
1485	5407
1486	5409
1489	5412
1491	5414
1492	5417
1493	5420
1492	5422
1492	5425
1490	5427
1489	5430
1489	5432
1493	5434
1495	5437
1498	5439
1499	5442
1501	5444
1502	5446
1502	5449
1501	5451
1501	5454
1502	5456
1500	5459
1495	5462
1494	5464
1494	5467
1499	5469
1506	5472
1513	5474
1514	5476
1514	5479
1507	5481
1502	5484
1499	5486
1497	5488
1497	5491
1498	5493
1505	5496
1513	5498
1514	5500
1510	5504
1502	5506
1497	5509
1502	5511
1514	5513
1521	5516
1520	5518
1511	5521
1510	5523
1511	5526
1507	5528
1505	5530
1506	5533
1513	5535
1522	5538
1522	5540
1514	5542
1505	5545
1502	5548
1518	5551
1516	5553
1504	5555
1501	5558
1522	5560
1554	5563
1583	5565
1593	5567
1582	5570
1566	5572
1563	5575
1558	5577
1567	5579
1581	5582
1602	5584
1624	5587
1641	5590
1640	5593
1618	5595
1601	5597
1588	5600
1567	5602
1557	5605
1550	5607
1549	5609
1549	5612
1542	5614
1537	5617
1540	5619
1570	5621
1608	5624
1624	5626
1618	5629
1616	5632
1614	5634
1568	5637
1507	5639
1473	5642
1504	5644
1566	5646
1587	5649
1576	5651
1574	5654
1577	5656
1594	5658
1604	5661
1604	5663
1595	5666
1580	5668
1579	5671
1583	5673
1565	5676
1553	5679
1539	5681
1547	5684
1561	5686
1562	5688
1566	5691
1541	5693
1531	5696
1516	5698
1510	5700
1488	5703
1494	5705
1542	5708
1576	5710
1585	5712
1586	5715
1597	5718
1603	5721
1579	5723
1534	5725
1506	5728
1518	5730
1543	5733
1559	5735
1541	5738
1489	5740
1462	5742
1486	5745
1517	5747
1563	5750
1589	5752
1594	5754
1567	5757
1540	5760
1522	5763
1517	5765
1508	5767
1504	5770
1501	5772
1494	5775
1485	5777
1493	5779
1481	5782
1451	5784
1452	5787
1499	5789
1519	5791
1495	5794
1501	5796
1537	5799
1563	5801
1549	5804
1533	5807
1526	5809
1527	5812
1535	5814
1553	5817
1557	5819
1539	5821
1512	5824
1521	5826
1495	5829
1469	5831
1475	5833
1522	5836
1533	5838
1515	5841
1506	5843
1508	5846
1514	5849
1520	5851
1512	5854
1500	5856
1506	5858
1498	5861
1497	5863
1496	5866
1508	5868
1510	5870
1508	5873
1487	5875
1472	5878
1476	5880
1497	5882
1490	5885
1486	5888
1481	5891
1489	5893
1515	5896
1542	5898
1521	5900
1488	5903
1493	5905
1482	5908
1466	5910
1455	5912
1457	5915
1458	5917
1507	5920
1534	5922
1504	5924
1478	5927
1463	5929
1451	5933
1474	5935
1522	5937
1515	5940
1481	5942
1434	5945
1432	5947
1459	5949
1499	5952
1490	5954
1452	5957
1440	5959
1463	5962
1472	5964
1468	5966
1456	5969
1479	5971
1515	5975
1538	5977
1543	5979
1511	5982
1481	5984
1453	5987
1438	5989
1451	5991
1468	5994
1499	5996
1519	5999
1522	6001
1530	6003
1546	6006
1524	6008
1482	6011
1480	6013
1566	6016
1580	6019
1519	6021
1445	6024
1461	6026
1497	6028
1528	6031
1541	6033
1544	6036
1530	6038
1510	6041
1478	6043
1452	6045
1460	6048
1499	6050
1501	6053
1454	6055
1440	6057
1489	6061
1512	6063
1519	6066
1517	6068
1534	6070
1532	6073
1497	6075
1455	6078
1471	6080
1497	6082
1496	6085
1453	6087
1461	6090
1488	6092
1480	6094
1466	6097
1507	6099
1541	6103
1528	6105
1524	6108
1541	6110
1525	6112
1511	6115
1499	6117
1501	6120
1499	6122
1467	6124
1423	6127
1432	6129
1468	6132
1512	6134
1506	6136
1500	6139
1508	6141
1538	6145
1534	6147
1522	6149
1488	6152
1489	6154
1480	6157
1448	6159
1430	6161
1443	6164
1452	6166
1482	6169
1515	6171
1520	6173
1513	6176
1492	6178
1468	6181
1468	6183
1493	6187
1533	6189
1553	6191
1489	6194
1410	6196
1405	6199
1453	6201
1479	6203
1495	6206
1501	6208
1508	6211
1520	6213
1487	6215
1465	6218
1470	6220
1494	6223
1504	6225
1474	6227
1416	6231
1441	6233
1486	6236
1547	6238
1539	6240
1518	6243
1521	6245
1490	6248
1437	6250
1424	6253
1448	6255
1457	6257
1451	6260
1459	6262
1482	6265
1502	6267
1506	6269
1499	6273
1463	6275
1458	6278
1496	6280
1539	6282
1532	6285
1530	6287
1515	6290
1499	6292
1470	6294
1447	6297
1449	6299
1478	6302
1498	6304
1473	6306
1481	6309
1517	6311
1523	6315
1475	6317
1466	6320
1475	6322
1482	6324
1489	6327
1488	6329
1491	6332
1496	6334
1462	6336
1442	6339
1470	6341
1477	6344
1468	6346
1474	6348
1459	6351
1452	6353
1462	6356
1460	6359
1480	6361
1498	6364
1507	6366
1519	6369
1496	6371
1492	6373
1507	6376
1517	6378
1484	6381
1434	6383
1399	6386
1416	6388
1481	6390
1510	6393
1528	6395
1536	6398
1520	6401
1483	6403
1464	6406
1479	6408
1501	6411
1501	6413
1491	6415
1468	6418
1449	6420
1443	6423
1465	6425
1502	6427
1509	6430
1512	6432
1511	6435
1518	6437
1518	6439
1510	6443
1494	6445
1450	6448
1452	6450
1500	6452
1504	6455
1473	6457
1453	6460
1448	6462
1492	6464
1520	6467
1493	6469
1462	6472
1456	6474
1458	6477
1485	6479
1524	6481
1526	6484
1504	6487
1476	6490
1479	6492
1501	6494
1520	6497
1499	6499
1474	6502
1493	6504
1510	6506
1534	6509
1547	6511
1530	6514
1499	6516
1466	6518
1484	6521
1485	6523
1475	6526
1481	6529
1496	6531
1510	6534
1475	6536
1427	6539
1431	6541
1469	6543
1485	6546
1503	6548
1509	6551
1498	6553
1458	6555
1431	6558
1456	6560
1479	6563
1477	6565
1483	6568
1487	6571
1490	6573
1482	6576
1486	6578
1502	6581
1524	6583
1521	6585
1498	6588
1484	6590
1455	6593
1443	6595
1444	6597
1453	6600
1460	6602
1470	6605
1492	6607
1496	6609
1487	6612
1475	6615
1476	6618
1469	6620
1430	6622
1421	6625
1464	6627
1504	6630
1512	6632
1488	6634
1469	6637
1457	6639
1481	6642
1493	6644
1464	6646
1441	6649
1460	6651
1490	6654
1480	6657
1496	6660
1523	6662
1525	6664
1510	6667
1490	6669
1488	6672
1482	6674
1447	6676
1417	6679
1421	6681
1450	6684
1454	6686
1476	6688
1514	6691
1554	6693
1560	6696
1537	6699
1487	6701
1447	6704
1456	6706
1473	6709
1453	6711
1459	6713
1478	6716
1482	6718
1469	6721
1494	6723
1522	6725
1524	6728
1532	6730
1519	6733
1493	6735
1453	6737
1436	6740
1441	6743
1485	6746
1522	6748
1541	6751
1551	6753
1548	6755
1507	6758
1483	6760
1486	6763
1501	6765
1517	6767
1532	6770
1535	6772
1500	6775
1447	6777
1431	6779
1472	6782
1508	6785
1519	6788
1518	6790
1500	6792
1507	6795
1509	6797
1479	6800
1460	6802
1438	6804
1442	6807
1475	6809
1541	6812
1565	6814
1563	6817
1550	6819
1514	6821
1481	6824
1452	6827
1444	6830
1461	6832
1462	6834
1460	6837
1508	6839
1561	6842
1546	6844
1490	6846
1481	6849
1495	6851
1522	6854
1551	6856
1562	6858
1501	6861
1412	6863
1372	6866
1435	6868
1492	6871
1529	6874
1527	6876
1516	6879
1503	6881
1512	6884
1536	6886
1527	6888
1484	6891
1480	6893
1514	6896
1536	6898
1547	6900
1525	6903
1484	6905
1447	6908
1480	6910
1504	6913
1479	6916
1478	6918
1476	6921
1467	6923
1482	6925
1506	6928
1521	6930
1497	6933
1482	6935
1493	6937
1470	6940
1452	6942
1484	6945
1488	6947
1458	6949
1446	6952
1446	6955
1462	6958
1500	6960
1527	6963
1514	6965
1501	6967
1490	6970
1480	6972
1458	6975
1456	6977
1468	6979
1474	6982
1456	6984
1444	6987
1475	6989
1562	6991
1591	6994
1530	6996
1463	7000
1462	7002
1465	7004
1452	7007
1463	7009
1500	7012
1506	7014
1496	7016
1496	7019
1465	7021
1445	7024
1457	7026
1468	7029
1461	7031
1480	7033
1501	7036
1495	7038
1482	7042
1491	7044
1530	7046
1556	7049
1504	7051
1448	7054
1453	7056
1480	7058
1479	7061
1460	7063
1458	7066
1467	7068
1494	7070
1524	7073
1543	7075
1554	7078
1539	7080
1513	7083
1486	7086
1445	7088
1398	7091
1388	7093
1416	7095
1456	7098
1470	7100
1493	7103
1536	7105
1542	7108
1521	7110
1508	7112
1485	7115
1459	7117
1465	7120
1486	7122
1492	7124
1504	7128
1531	7130
1535	7133
1490	7135
1438	7137
1466	7140
1483	7142
1485	7145
1491	7147
1501	7149
1469	7152
1482	7154
1494	7157
1477	7159
1477	7161
1486	7164
1477	7166
1471	7170
1472	7172
1480	7175
1509	7177
1557	7179
1548	7182
1487	7184
1456	7187
1477	7189
1497	7191
1483	7194
1481	7196
1475	7199
1471	7201
1451	7203
1433	7206
1432	7208
1478	7212
1501	7214
1514	7216
1513	7219
1509	7221
1479	7224
1466	7226
1477	7228
1484	7231
1501	7233
1531	7236
1550	7238
1526	7241
1513	7243
1467	7245
1394	7248
1363	7250
1386	7254
1436	7256
1513	7258
1546	7261
1534	7263
1517	7266
1487	7268
1450	7270
1445	7273
1472	7275
1488	7278
1489	7280
1463	7282
1453	7285
1468	7287
1508	7290
1539	7292
1545	7294
1530	7298
1492	7300
1454	7303
1426	7305
1453	7307
1470	7310
1476	7312
1458	7315
1475	7317
1512	7320
1556	7322
1555	7324
1507	7327
1446	7329
1409	7332
1414	7334
1442	7336
1480	7340
1481	7342
1463	7345
1471	7347
1528	7349
1549	7352
1528	7354
1509	7357
1484	7359
1482	7361
1490	7364
1507	7366
1506	7369
1490	7371
1478	7373
1485	7376
1487	7378
1506	7382
1532	7384
1546	7387
1544	7389
1508	7391
1462	7394
1440	7396
1453	7399
1485	7401
1502	7403
1499	7406
1506	7408
1522	7411
1532	7413
1521	7415
1498	7418
1485	7420
1472	7424
1457	7426
1458	7428
1483	7431
1508	7433
1506	7436
1493	7438
1482	7440
1479	7443
1527	7445
1533	7448
1500	7450
1482	7453
1470	7455
1450	7457
1475	7460
1517	7462
1508	7465
1472	7468
1454	7470
1472	7473
1495	7475
1516	7478
1475	7480
1434	7482
1450	7485
1539	7487
1579	7490
1551	7492
1484	7494
1447	7497
1465	7499
1511	7502
1519	7504
1491	7506
1458	7510
1454	7512
1463	7515
1442	7517
1454	7519
1510	7522
1531	7524
1506	7527
1481	7529
1498	7532
1530	7534
1525	7536
1522	7539
1510	7541
1482	7544
1443	7546
1445	7548
1477	7552
1498	7554
1540	7557
1551	7559
1520	7561
1477	7564
1498	7566
1483	7569
1446	7571
1462	7573
1514	7576
1509	7578
1484	7581
1513	7583
1555	7586
1523	7588
1485	7590
1478	7593
1484	7596
1488	7599
1481	7601
1473	7603
1485	7606
1505	7608
1500	7611
1496	7613
1514	7615
1531	7618
1496	7620
1434	7623
1415	7625
1455	7627
1481	7630
1472	7632
1457	7635
1460	7638
1462	7640
1462	7643
1458	7645
1476	7648
1498	7650
1531	7653
1546	7655
1564	7657
1562	7660
1504	7662
1425	7665
1408	7667
1442	7669
1472	7672
1481	7674
1490	7677
1514	7680
1527	7682
1512	7685
1468	7687
1435	7690
1430	7692
1450	7694
1474	7697
1488	7699
1488	7702
1478	7704
1476	7706
1493	7709
1507	7711
1501	7714
1479	7716
1466	7718
1484	7721
1520	7724
1525	7727
1490	7729
1443	7732
1433	7734
1461	7736
1490	7739
1505	7741
1515	7744
1512	7746
1492	7748
1482	7751
1494	7753
1530	7756
1495	7758
1409	7760
1376	7763
1441	7766
1480	7769
1499	7771
1499	7773
1474	7776
1437	7778
1433	7781
1459	7783
1502	7785
1570	7788
1559	7790
1517	7793
1483	7795
1459	7797
1464	7800
1469	7802
1489	7805
1505	7808
1536	7811
1532	7813
1513	7815
1495	7818
1487	7820
1499	7823
1512	7825
1540	7827
1525	7830
1479	7832
1460	7835
1481	7837
1500	7839
1506	7842
1508	7844
1499	7847
1505	7849
1520	7852
1534	7855
1516	7857
1485	7860
1486	7862
1489	7865
1480	7867
1508	7869
1518	7872
1509	7874
1466	7877
1441	7879
1441	7881
1447	7884
1473	7886
1502	7889
1524	7891
1517	7894
1487	7897
1462	7899
1468	7902
1494	7904
1493	7906
1470	7909
1478	7911
1514	7914
1530	7916
1537	7918
1550	7921
1524	7923
1489	7926
1448	7928
1458	7931
1496	7933
1481	7936
1453	7939
1449	7941
1458	7944
1490	7946
1573	7948
1624	7951
1614	7953
1538	7956
1466	7958
1444	7960
1487	7963
1530	7965
1511	7968
1493	7970
1449	7972
1449	7975
1479	7977
1550	7981
1584	7983
1570	7985
1546	7988
1477	7990
1430	7993
1438	7995
1475	7997
1508	8000
1481	8002
1438	8005
1432	8007
1505	8010
1540	8012
1565	8014
1566	8017
1525	8019
1473	8023
1457	8025
1486	8027
1507	8030
1505	8032
1501	8035
1484	8037
1461	8039
1483	8042
1525	8044
1535	8047
1507	8049
1452	8051
1440	8054
1512	8056
1572	8059
1551	8061
1531	8064
1490	8067
1490	8069
1510	8072
1502	8074
1476	8076
1455	8079
1460	8081
1474	8084
1485	8086
1500	8088
1509	8091
1513	8093
1512	8096
1497	8098
1483	8101
1501	8103
1504	8105
1489	8109
1495	8111
1490	8114
1476	8116
1439	8118
1438	8121
1480	8123
1499	8126
1480	8128
1468	8130
1480	8133
1491	8135
1471	8138
1477	8140
1501	8142
1475	8145
1425	8147
1412	8151
1440	8153
1483	8155
1473	8158
1475	8160
1525	8163
1535	8165
1521	8168
1506	8170
1482	8172
1454	8175
1441	8177
1437	8180
1447	8182
1468	8184
1498	8187
1533	8189
1545	8193
1525	8195
1530	8197
1548	8200
1538	8202
1488	8205
1435	8207
1425	8209
1451	8212
1489	8214
1522	8217
1532	8219
1536	8221
1523	8224
1517	8226
1525	8229
1503	8231
1442	8235
1410	8237
1428	8239
1474	8242
1505	8244
1530	8247
1517	8249
1468	8251
1451	8254
1476	8256
1500	8259
1511	8261
1527	8263
1504	8266
1472	8268
1453	8271
1473	8273
1532	8275
1560	8279
1531	8281
1495	8284
1488	8286
1464	8288
1398	8291
1379	8293
1443	8296
1510	8298
1528	8300
1528	8303
1532	8305
1539	8308
1543	8310
1512	8313
1492	8315
1488	8317
1505	8321
1504	8323
1501	8326
1499	8328
1467	8330
1425	8333
1430	8335
1492	8338
1532	8340
1533	8342
1498	8345
1457	8347
1461	8350
1500	8352
1543	8354
1570	8357
1573	8359
1547	8363
1488	8365
1387	8367
1338	8370
1419	8372
1503	8375
1564	8377
1557	8380
1549	8382
1526	8384
1489	8387
1443	8389
1445	8392
1491	8394
1518	8396
1471	8399
1468	8401
1540	8404
1561	8407
1533	8409
1507	8412
1485	8414
1477	8417
1518	8419
1542	8421
1534	8424
1510	8426
1472	8429
1444	8431
1459	8433
1479	8436
1470	8438
1468	8441
1514	8443
1573	8445
1583	8449
1535	8451
1487	8454
1479	8456
1477	8459
1478	8461
1479	8463
1491	8466
1505	8468
1501	8471
1490	8473
1471	8475
1462	8478
1472	8480
1498	8483
1513	8485
1498	8487
1475	8491
1424	8493
1380	8496
1403	8498
1507	8500
1588	8503
1597	8505
1571	8508
1534	8510
1494	8512
1449	8515
1443	8517
1476	8520
1482	8522
1485	8524
1487	8527
1484	8529
1500	8532
1510	8535
1512	8538
1503	8540
1489	8542
1473	8545
1457	8547
1431	8550
1434	8552
1456	8554
1500	8557
1549	8559
1555	8562
1555	8564
1534	8566
1501	8569
1475	8571
1449	8574
1430	8577
1430	8579
1456	8582
1501	8584
1530	8587
1518	8589
1498	8591
1501	8594
1486	8596
1462	8599
1488	8601
1536	8603
1546	8606
1512	8608
1459	8611
1417	8613
1398	8616
1451	8619
1541	8621
1574	8624
1561	8626
1535	8629
1515	8631
1472	8633
1445	8636
1437	8638
1459	8641
1489	8643
1488	8645
1461	8648
1419	8650
1403	8653
1454	8655
1503	8657
1539	8660
1572	8663
1568	8666
1540	8668
1496	8670
1458	8673
1468	8675
1455	8678
1419	8680
1398	8683
1452	8685
1528	8687
1557	8690
1527	8692
1476	8695
1443	8697
1451	8699
1472	8702
1483	8705
1473	8708
1459	8710
1470	8712
1514	8715
1534	8717
1518	8720
1481	8722
1466	8724
1464	8727
1479	8729
1469	8732
1465	8734
1475	8736
1486	8739
1482	8741
1459	8744
1470	8747
1514	8749
1528	8752
1502	8754
1485	8757
1503	8759
1508	8762
1494	8764
1497	8766
1505	8769
1488	8771
1452	8774
1437	8776
1464	8778
1511	8781
1563	8783
1574	8786
1540	8788
1493	8791
1448	8794
1443	8796
1469	8799
1504	8801
1483	8803
1458	8806
1440	8808
1461	8811
1480	8813
1515	8815
1550	8818
1567	8820
1556	8823
1538	8825
1545	8828
1530	8830
1478	8833
1423	8836
1443	8838
1500	8841
1561	8843
1546	8845
1515	8848
1503	8850
1520	8853
1525	8855
1547	8857
1569	8860
1563	8862
1539	8865
1507	8867
1480	8869
1440	8872
1420	8875
1430	8878
1459	8880
1490	8882
1492	8885
1508	8887
1515	8890
1515	8892
1512	8895
1500	8897
1496	8899
1509	8902
1520	8904
1513	8907
1488	8909
1450	8911
1452	8914
1507	8916
1558	8920
1533	8922
1479	8924
1469	8927
1486	8929
1495	8932
1480	8934
1462	8936
1474	8939
1490	8941
1480	8944
1503	8946
1546	8948
1525	8951
1458	8953
1442	8956
1469	8958
1473	8962
1465	8964
1495	8966
1539	8969
1556	8971
1544	8974
1522	8976
1498	8978
1462	8981
1464	8983
1472	8986
1473	8988
1450	8990
1460	8993
1480	8995
1521	8998
1573	9000
1561	9003
1508	9006
1486	9008
1501	9011
1510	9013
1477	9015
1462	9018
1463	9020
1478	9023
1492	9025
1500	9027
1506	9030
1530	9032
1545	9035
1533	9037
1503	9040
1462	9042
1418	9044
1398	9048
1428	9050
1497	9053
1542	9055
1535	9057
1511	9060
1486	9062
1478	9065
1467	9067
1494	9069
1541	9072
1556	9074
1528	9077
1490	9079
1487	9081
1439	9084
1374	9086
1371	9090
1459	9092
1561	9094
1582	9097
1569	9099
1555	9102
1560	9104
1550	9107
1538	9109
1486	9111
1432	9114
1399	9116
1349	9119
1370	9121
1451	9123
1571	9126
1603	9128
1578	9132
1564	9134
1548	9136
1520	9139
1468	9141
1446	9144
1472	9146
1522	9148
1524	9151
1480	9153
1454	9156
1478	9158
1517	9160
1536	9163
1541	9165
1547	9168
1542	9170
1532	9174
1517	9176
1499	9178
1466	9181
1452	9183
1461	9186
1488	9188
1514	9190
1513	9193
1502	9195
1499	9198
1511	9200
1522	9202
1535	9205
1532	9207
1509	9210
1467	9212
1438	9214
1425	9218
1426	9220
1459	9223
1524	9225
1572	9227
1557	9230
1528	9232
1502	9235
1492	9237
1487	9240
1469	9242
1468	9244
1476	9247
1492	9249
1503	9252
1514	9254
1528	9256
1529	9260
1519	9262
1516	9265
1511	9267
1511	9269
1523	9272
1547	9274
1530	9277
1487	9279
1444	9281
1437	9284
1450	9286
1458	9289
1466	9291
1473	9293
1491	9296
1478	9298
1464	9302
1491	9304
1522	9307
1538	9309
1540	9311
1536	9314
1518	9316
1481	9319
1436	9321
1423	9323
1408	9326
1419	9328
1484	9331
1544	9333
1525	9335
1476	9338
1462	9340
1475	9344
1492	9346
1500	9348
1507	9351
1496	9353
1468	9356
1455	9358
1466	9360
1498	9363
1450	9365
1397	9368
1420	9370
1491	9372
1536	9375
1562	9377
1567	9380
1533	9382
1487	9385
1448	9388
1433	9390
1453	9393
1479	9395
1533	9398
1572	9400
1573	9402
1553	9405
1501	9407
1465	9410
1437	9412
1460	9414
1491	9417
1495	9419
1480	9422
1472	9424
1482	9426
1516	9430
1543	9432
1520	9435
1479	9437
1438	9440
1452	9442
1471	9444
1464	9447
1439	9449
1456	9452
1493	9454
1531	9456
1558	9459
1544	9461
1523	9464
1535	9466
1561	9468
1575	9472
1552	9474
1544	9477
1525	9479
1480	9481
1412	9484
1382	9486
1414	9489
1473	9491
1502	9493
1519	9496
1543	9498
1555	9501
1546	9503
1544	9506
1544	9508
1533	9510
1511	9513
1501	9516
1498	9519
1459	9521
1426	9523
1449	9526
1490	9528
1517	9531
1535	9533
1560	9535
1535	9538
1494	9540
1473	9543
1476	9545
1498	9547
1513	9550
1512	9552
1510	9555
1524	9558
1533	9560
1502	9563
1434	9565
1398	9568
1420	9570
1498	9573
1530	9575
1518	9577
1507	9580
1547	9582
1557	9585
1536	9587
1503	9589
1476	9592
1472	9594
1490	9597
1484	9600
1479	9602
1484	9605
1478	9607
1470	9610
1470	9612
1502	9614
1536	9617
1529	9619
1502	9622
1493	9624
1487	9626
1466	9629
1454	9631
1475	9634
1506	9636
1527	9638
1542	9641
1536	9644
1511	9647
1465	9649
1433	9652
1427	9654
1450	9656
1501	9659
1541	9661
1526	9664
1471	9666
1434	9668
1434	9671
1458	9673
1496	9676
1522	9678
1524	9680
1515	9683
1514	9686
1516	9689
1511	9691
1507	9693
1476	9696
1438	9698
1460	9701
1523	9703
1544	9705
1501	9708
1450	9710
1456	9713
1496	9715
1503	9717
1485	9720
1484	9722
1505	9725
1527	9728
1533	9731
1523	9733
1506	9735
1507	9738
1502	9740
1487	9743
1452	9745
1449	9747
1475	9750
1484	9752
1494	9755
1507	9757
1510	9759
1479	9762
1493	9764
1517	9767
1519	9769
1510	9772
1510	9775
1522	9777
1496	9780
1460	9782
1478	9784
1566	9787
1605	9789
1561	9792
1486	9794
1448	9797
1464	9799
1467	9801
1495	9804
1533	9806
1546	9809
1544	9811
1535	9814
1524	9817
1518	9819
1499	9822
1479	9824
1479	9826
1502	9829
1541	9831
1535	9834
1482	9836
1452	9838
1435	9841
1450	9843
1474	9846
1498	9848
1515	9850
1533	9853
1527	9856
1500	9859
1507	9861
1553	9864
1573	9866
1556	9868
1533	9871
1512	9873
1485	9876
1461	9878
1435	9880
1456	9883
1506	9885
1542	9888
1514	9890
1479	9892
1477	9895
1498	9897
1524	9901
1510	9903
1494	9905
1481	9908
1484	9910
1496	9913
1523	9915
1546	9917
1524	9920
1510	9922
1504	9925
1529	9927
1547	9930
1555	9932
1519	9934
1481	9937
1480	9939
1509	9943
1507	9945
1454	9947
1428	9950
1445	9952
1499	9955
1543	9957
1565	9959
1565	9962
1540	9964
1499	9967
1486	9969
1461	9971
1453	9974
1478	9976
1511	9979
1521	9981
1514	9984
1477	9987
1440	9989
1425	9992
1447	9994
1457	9997
1456	9999
1466	10001
1490	10004
1526	10006
1564	10009
1604	10011
1616	10014
1563	10016
1491	10019
1431	10021
1429	10023
1433	10027
1444	10029
1486	10032
1536	10034
1556	10037
1563	10039
1557	10042
1551	10044
1520	10047
1456	10049
1417	10051
1425	10054
1470	10056
1508	10059
1527	10061
1515	10064
1498	10066
1490	10070
1514	10072
1524	10075
1502	10077
1447	10079
1430	10082
1451	10084
1496	10087
1517	10089
1516	10092
1524	10094
1522	10097
1510	10099
1506	10102
1537	10104
1546	10107
1501	10109
1444	10112
1421	10115
1430	10117
1409	10120
1416	10122
1469	10125
1511	10127
1511	10130
1514	10132
1532	10135
1516	10137
1482	10139
1452	10142
1460	10144
1497	10147
1502	10149
1494	10152
1495	10155
1523	10158
1523	10160
1503	10163
1493	10165
1529	10167
1544	10170
1512	10172
1495	10175
1502	10177
1528	10180
1529	10182
1475	10185
1436	10187
1451	10190
1464	10192
1476	10195
1485	10198
1501	10200
1508	10203
1505	10205
1515	10208
1531	10210
1490	10213
1456	10215
1438	10218
1481	10220
1538	10223
1559	10225
1546	10227
1511	10230
1492	10232
1500	10235
1516	10237
1485	10241
1435	10243
1429	10246
1485	10248
1524	10251
1512	10253
1494	10255
1516	10258
1530	10260
1510	10263
1486	10265
1459	10268
1441	10270
1436	10273
1458	10275
1464	10278
1477	10280
1508	10284
1551	10286
1539	10288
1510	10291
1532	10293
1550	10296
1547	10298
1503	10301
1453	10303
1414	10306
1437	10308
1483	10311
1514	10313
1542	10315
1532	10318
1521	10320
1514	10323
1519	10326
1510	10329
1503	10331
1494	10334
1485	10336
1474	10339
1451	10341
1467	10343
1515	10346
1557	10348
1549	10351
1506	10353
1494	10356
1468	10358
1457	10361
1441	10363
1445	10366
1497	10369
1545	10372
1555	10374
1529	10376
1516	10379
1493	10381
1469	10384
1438	10386
1404	10389
1377	10391
1417	10394
1511	10396
1559	10399
1548	10401
1500	10403
1497	10406
1515	10408
1507	10412
1492	10414
1468	10417
1441	10419
1440	10422
1470	10424
1519	10427
1516	10429
1482	10431
1481	10434
1547	10436
1579	10439
1561	10441
1506	10444
1476	10446
1490	10449
1508	10451
1470	10455
1439	10457
1471	10459
1498	10462
1488	10464
1453	10467
1475	10469
1520	10472
1552	10474
1544	10477
1520	10479
1503	10482
1508	10484
1521	10487
1524	10489
1488	10491
1455	10494
1476	10497
1524	10500
1540	10502
1517	10505
1496	10507
1493	10510
1491	10512
1471	10515
1475	10517
1478	10519
1476	10522
1488	10524
1511	10527
1535	10529
1525	10532
1508	10534
1540	10537
1577	10540
1581	10543
1500	10545
1435	10547
1443	10550
1490	10552
1517	10555
1526	10557
1513	10560
1487	10562
1446	10565
1430	10567
1461	10570
1507	10572
1531	10574
1515	10577
1496	10579
1511	10583
1531	10585
1534	10588
1515	10590
1505	10593
1502	10595
1492	10598
1488	10600
1499	10603
1525	10605
1537	10607
1544	10610
1542	10612
1534	10615
1533	10617
1529	10620
1504	10622
1475	10626
1476	10628
1500	10631
1526	10633
1534	10635
1519	10638
1505	10640
1495	10643
1506	10645
1524	10648
1521	10650
1503	10653
1522	10655
1533	10658
1478	10660
1423	10662
1414	10665
1455	10668
1485	10671
1485	10673
1507	10676
1540	10678
1547	10681
1541	10683
1522	10686
1531	10688
1522	10691
1480	10693
1421	10695
1393	10698
1389	10700
1407	10703
1449	10705
1492	10708
1498	10711
1485	10714
1507	10716
1541	10719
1544	10721
1501	10723
1468	10726
1500	10728
1537	10731
1510	10733
1464	10736
1459	10738
1488	10741
1490	10743
1484	10746
1491	10748
1481	10750
1458	10754
1435	10756
1448	10759
1465	10761
1495	10764
1508	10766
1499	10769
1477	10771
1461	10774
1465	10776
1473	10778
1497	10781
1494	10783
1449	10786
1421	10788
1440	10791
1479	10793
1541	10797
1574	10799
1579	10802
1551	10804
1522	10807
1479	10809
1448	10811
1467	10814
1523	10816
1554	10819
1520	10821
1481	10824
1477	10826
1475	10829
1444	10831
1408	10834
1399	10836
1438	10839
1483	10842
1540	10844
1548	10847
1518	10849
1499	10852
1484	10854
1479	10857
1486	10859
1508	10862
1523	10864
1500	10866
1426	10869
1370	10871
1380	10874
1446	10876
1497	10880
1515	10882
1537	10885
1577	10887
1597	10890
1597	10892
1562	10895
1494	10897
1447	10899
1439	10902
1473	10904
1463	10907
1407	10909
1382	10912
1445	10914
1537	10917
1593	10919
1589	10923
1546	10925
1510	10927
1510	10930
1507	10932
1471	10935
1389	10937
1348	10940
1413	10942
1521	10945
1570	10947
1524	10950
1481	10952
1477	10954
1508	10957
1549	10959
1550	10962
1508	10964
1468	10968
1449	10970
1482	10973
1495	10975
1468	10978
1481	10980
1552	10983
1578	10985
1508	10987
1461	10990
1486	10992
1538	10995
1526	10997
1472	11000
1444	11002
1470	11005
1521	11008
1534	11011
1532	11013
1523	11015
1494	11018
1477	11020
1502	11023
1544	11025
1559	11028
1518	11030
1472	11033
1470	11035
1508	11038
1525	11040
1499	11042
1470	11045
1505	11047
1573	11051
1578	11053
1541	11056
1496	11058
1481	11061
1493	11063
1533	11066
1589	11068
1591	11070
1555	11073
1501	11075
1471	11078
1483	11080
1498	11083
1521	11085
1532	11088
1522	11090
1478	11094
1427	11096
1419	11099
1439	11101
1481	11103
1514	11106
1502	11108
1489	11111
1506	11113
1523	11116
1521	11118
1500	11121
1494	11123
1483	11126
1502	11128
1555	11130
1590	11133
1552	11136
1498	11139
1502	11141
1530	11144
1494	11146
1446	11149
1430	11151
1473	11154
1508	11156
1518	11158
1507	11161
1480	11163
1442	11166
1438	11168
1474	11171
1501	11173
1505	11176
1523	11179
1555	11182
1554	11184
1523	11187
1453	11189
1430	11191
1457	11194
1501	11196
1520	11199
1490	11201
1454	11204
1436	11206
1433	11209
1415	11211
1379	11214
1383	11216
1436	11218
1519	11222
1559	11224
1550	11227
1539	11229
1555	11232
1567	11234
1543	11237
1522	11239
1520	11242
1515	11244
1472	11246
1417	11249
1398	11251
1421	11254
1452	11256
1477	11259
1512	11261
1529	11265
1547	11267
1566	11270
1547	11272
1513	11274
1500	11277
1490	11279
1472	11282
1459	11284
1447	11287
1430	11289
1435	11292
1484	11294
1555	11297
1573	11299
1542	11302
1519	11304
1489	11307
1463	11310
1459	11312
1481	11315
1504	11317
1485	11320
1456	11322
1446	11325
1438	11327
1454	11330
1483	11332
1535	11334
1570	11337
1550	11339
1507	11342
1475	11344
1476	11347
1489	11350
1459	11353
1397	11355
1371	11358
1430	11360
1487	11362
1500	11365
1465	11367
1428	11370
1436	11372
1510	11375
1569	11377
1566	11380
1552	11382
1520	11385
1480	11387
1445	11390
1428	11393
1436	11395
1478	11398
1513	11400
1539	11403
1522	11405
1475	11408
1428	11410
1436	11413
1494	11415
1536	11418
1527	11420
1485	11422
1435	11425
1428	11427
1412	11430
1418	11432
1446	11436
1496	11438
1529	11441
1537	11443
1553	11446
1568	11448
1553	11450
1523	11453
1483	11455
1453	11458
1436	11460
1446	11463
1460	11465
1454	11468
1452	11470
1473	11473
1514	11475
1540	11479
1526	11481
1490	11483
1468	11486
1481	11488
1510	11491
1509	11493
1490	11496
1489	11498
1517	11501
1523	11503
1507	11506
1436	11508
1370	11510
1351	11513
1386	11515
1444	11518
1496	11521
1548	11524
1578	11526
1581	11529
1551	11531
1542	11534
1505	11536
1455	11538
1435	11541
1472	11543
1511	11546
1525	11548
1527	11551
1524	11553
1502	11556
1502	11558
1512	11561
1507	11564
1481	11567
1445	11569
1447	11571
1466	11574
1471	11576
1476	11579
1498	11581
1524	11584
1552	11586
1574	11589
1578	11591
1539	11594
1497	11596
1475	11598
1492	11601
1504	11603
1499	11607
1480	11609
1471	11612
1488	11614
1487	11617
1477	11619
1508	11622
1553	11624
1543	11626
1484	11629
1448	11631
1476	11634
1515	11636
1521	11639
1509	11641
1486	11644
1476	11646
1478	11650
1521	11652
1551	11654
1525	11657
1439	11659
1362	11662
1390	11664
1478	11667
1538	11669
1547	11672
1568	11674
1605	11677
1614	11679
1584	11682
1524	11684
1487	11686
1447	11689
1452	11692
1472	11695
1472	11697
1448	11700
1427	11702
1423	11705
1456	11707
1501	11710
1511	11712
1503	11714
1504	11717
1521	11719
1512	11722
1481	11724
1478	11727
1509	11729
1523	11732
1521	11735
1514	11738
1481	11740
1431	11742
1399	11745
1431	11747
1484	11750
1506	11752
1517	11755
1534	11757
1534	11760
1526	11762
1511	11765
1508	11767
1507	11770
1518	11772
1521	11774
1510	11778
1477	11780
1430	11783
1386	11785
1401	11788
1457	11790
1511	11793
1526	11795
1511	11798
1499	11800
1493	11802
1480	11805
1484	11807
1470	11810
1455	11812
1463	11815
1507	11817
1527	11821
1493	11823
1437	11826
1426	11828
1439	11830
1463	11833
1492	11835
1516	11838
1512	11840
1485	11843
1471	11845
1510	11848
1547	11850
1545	11853
1490	11855
1423	11857
1420	11860
1453	11863
1477	11866
1475	11868
1474	11871
1481	11873
1485	11876
1491	11878
1475	11881
1472	11883
1475	11886
1491	11888
1514	11890
1547	11893
1566	11895
1536	11898
1478	11900
1459	11904
1441	11906
1412	11909
1414	11911
1458	11914
1489	11916
1482	11918
1486	11921
1511	11923
1516	11926
1541	11928
1552	11931
1552	11933
1544	11936
1531	11938
1545	11941
1557	11943
1540	11945
1497	11949
1467	11951
1464	11954
1483	11956
1474	11959
1433	11961
1445	11964
1489	11966
1543	11969
1526	11971
1471	11974
1466	11976
1504	11978
1540	11981
1546	11983
1526	11986
1516	11988
1514	11992
1520	11994
1521	11997
1504	11999
1502	12002
1514	12004
1534	12006
1540	12009
1502	12011
1480	12014
1489	12016
1516	12019
1528	12021
1515	12024
1528	12026
1536	12029
1522	12032
1496	12034
1469	12037
1446	12039
1472	12042
1484	12044
1500	12047
1498	12049
1475	12052
1440	12054
1401	12057
1381	12059
1408	12061
1486	12064
1551	12066
1570	12069
1560	12071
1557	12075
1548	12077
1530	12080
1517	12082
1527	12085
1547	12087
1555	12090
1537	12092
1516	12094
1506	12097
1467	12099
1424	12102
1399	12104
1426	12107
1472	12109
1510	12112
1506	12114
1488	12118
1478	12120
1485	12122
1499	12125
1519	12127
1545	12130
1585	12132
1561	12135
1491	12137
1455	12140
1457	12142
1471	12145
1479	12147
1427	12149
1378	12152
1401	12154
1482	12157
1507	12160
1479	12163
1468	12165
1482	12168
1505	12170
1509	12173
1512	12175
1506	12178
1509	12180
1497	12182
1473	12185
1468	12187
1485	12190
1508	12192
1495	12195
1478	12197
1464	12200
1450	12203
1438	12206
1428	12208
1432	12210
1449	12213
1496	12215
1557	12218
1579	12220
1565	12223
1552	12225
1516	12228
1443	12230
1376	12233
1379	12235
1450	12237
1525	12240
1546	12242
1537	12246
1523	12248
1517	12251
1493	12253
1469	12256
1468	12258
1484	12261
1506	12263
1486	12265
1442	12268
1420	12270
1419	12273
1457	12275
1501	12278
1523	12280
1514	12283
1506	12285
1519	12289
1561	12291
1562	12294
1513	12296
1475	12298
1498	12301
1531	12303
1522	12306
1493	12308
1497	12311
1507	12313
1511	12316
1514	12318
1516	12321
1518	12323
1508	12325
1517	12328
1534	12331
1535	12334
1508	12336
1467	12339
1442	12341
1432	12344
1438	12346
1505	12349
1593	12351
1634	12353
1618	12356
1546	12358
1499	12361
1519	12363
1504	12366
1474	12368
1439	12371
1478	12374
1528	12377
1528	12379
1507	12382
1514	12384
1528	12386
1554	12389
1575	12391
1597	12394
1604	12396
1551	12399
1479	12401
1446	12404
1446	12406
1471	12409
1491	12411
1511	12413
1505	12417
1462	12419
1410	12422
1413	12424
1459	12427
1506	12429
1540	12432
1541	12434
1536	12437
1529	12439
1538	12441
1543	12444
1517	12446
1498	12449
1486	12451
1507	12454
1516	12456
1495	12460
1481	12462
1471	12465
1469	12467
1469	12470
1465	12472
1466	12474
1486	12477
1530	12479
1549	12482
1540	12484
1503	12487
1469	12489
1443	12492
1432	12494
1434	12497
1424	12499
1431	12502
1485	12505
1550	12507
1580	12510
1571	12512
1559	12515
1556	12517
1512	12520
1449	12522
1413	12525
1428	12527
1440	12529
1459	12532
1475	12534
1510	12537
1501	12539
1494	12542
1520	12545
1556	12548
1559	12550
1534	12553
1492	12555
1448	12557
1407	12560
1378	12562
1374	12565
1403	12567
1426	12570
1486	12572
1541	12575
1531	12577
1495	12580
1489	12582
1519	12585
1534	12588
1512	12590
1505	12593
1493	12595
1469	12598
1441	12600
1444	12603
1467	12605
1473	12608
1467	12610
1444	12613
1456	12615
1498	12617
1536	12620
1526	12622
1525	12625
1516	12627
1506	12631
1519	12633
1513	12636
1493	12638
1479	12641
1498	12643
1497	12645
1477	12648
1474	12650
1486	12653
1514	12655
1511	12658
1497	12660
1493	12663
1475	12665
1450	12668
1446	12670
1454	12674
1446	12676
1432	12678
1419	12681
1429	12683
1435	12686
1446	12688
1466	12691
1501	12693
1533	12696
1539	12698
1495	12701
1453	12703
1443	12705
1444	12708
1419	12710
1411	12713
1437	12716
1487	12719
1517	12721
1509	12724
1501	12726
1508	12729
1506	12731
1484	12733
1473	12736
1494	12738
1518	12741
1509	12743
1488	12746
1461	12748
1429	12751
1441	12753
1491	12756
1536	12759
1480	12762
1377	12764
1335	12766
1408	12769
1493	12771
1558	12774
1560	12776
1531	12779
1500	12781
1495	12784
1513	12786
1540	12789
1523	12791
1465	12793
1421	12796
1412	12798
1420	12802
1418	12804
1434	12807
1461	12809
1478	12812
1483	12814
1489	12817
1501	12819
1516	12821
1503	12824
1503	12826
1502	12829
1484	12831
1451	12834
1441	12836
1438	12839
1446	12841
1479	12845
1520	12847
1528	12849
1499	12852
1457	12854
1460	12857
1478	12859
1518	12862
1559	12864
1529	12867
1470	12869
1428	12872
1460	12874
1515	12877
1516	12879
1508	12881
1505	12884
1494	12887
1474	12890
1465	12892
1499	12895
1497	12897
1456	12900
1433	12902
1469	12905
1519	12907
1516	12909
1484	12912
1480	12914
1519	12917
1548	12919
1525	12922
1470	12924
1451	12928
1487	12930
1517	12933
1510	12935
1484	12937
1476	12940
1508	12942
1528	12945
1521	12947
1505	12950
1502	12952
1487	12955
1465	12957
1443	12960
1462	12962
1489	12965
1514	12967
1512	12969
1504	12973
1499	12975
1508	12978
1493	12980
1464	12983
1460	12985
1499	12988
1526	12990
1519	12993
1510	12995
1531	12997
1564	13000
1548	13002
1505	13005
1468	13007
1476	13010
1497	13012
1506	13016
1504	13018
1505	13021
1505	13023
1529	13025
1535	13028
1506	13030
1479	13033
1459	13035
1453	13038
1443	13040
1414	13043
1392	13045
1404	13048
1453	13050
1494	13052
1523	13056
1530	13058
1525	13061
1502	13063
1483	13066
1508	13068
1561	13071
1591	13073
1556	13076
1503	13078
1459	13081
1462	13083
1473	13085
1470	13088
1459	13090
1445	13093
1451	13095
1477	13099
1506	13101
1469	13104
1410	13106
1421	13109
1492	13111
1536	13113
1537	13116
1533	13118
1558	13121
1593	13123
1603	13126
1584	13128
1555	13131
1508	13133
1479	13136
1461	13138
1458	13140
1463	13144
1495	13146
1549	13149
1595	13151
1592	13154
1538	13156
1472	13159
1460	13161
1479	13164
1494	13166
1510	13168
1518	13171
1520	13173
1525	13176
1539	13178
1520	13181
1489	13184
1483	13187
1506	13189
1514	13192
1498	13194
1512	13197
1510	13199
1509	13201
1531	13204
1562	13206
1564	13209
1550	13211
1525	13214
1533	13216
1525	13219
1501	13221
1491	13224
1499	13227
1495	13229
1482	13232
1483	13234
1508	13237
1511	13239
1491	13242
1510	13244
1545	13247
1542	13249
1528	13252
1503	13254
1518	13256
1522	13259
1491	13261
1473	13264
1494	13266
1539	13270
1536	13272
1498	13275
1478	13277
1486	13280
1504	13282
1538	13285
1561	13287
1552	13289
1531	13292
1499	13294
1482	13297
1482	13299
1477	13302
1466	13304
1467	13307
1475	13309
1468	13313
1482	13315
1486	13317
1510	13320
1543	13322
1574	13325
1560	13327
1480	13330
1419	13332
1379	13335
1393	13337
1443	13340
1482	13342
1496	13344
1501	13347
1487	13349
1427	13352
1405	13355
1455	13358
1540	13360
1565	13363
1544	13365
1532	13368
1509	13370
1465	13373
1388	13375
1364	13377
1412	13380
1476	13382
1502	13385
1516	13387
1536	13390
1538	13392
1522	13395
1497	13398
1487	13401
1481	13403
1474	13405
1504	13408
1525	13410
1524	13413
1514	13415
1501	13418
1465	13420
1424	13423
1409	13425
1430	13428
1465	13430
1486	13432
1479	13435
1464	13437
1477	13441
1495	13443
1506	13446
1511	13448
1522	13451
1531	13453
1524	13456
1514	13458
1510	13461
1477	13463
1424	13465
1403	13468
1429	13470
1458	13473
1469	13475
1475	13478
1491	13480
1514	13484
1528	13486
1527	13489
1520	13491
1511	13493
1492	13496
1494	13498
1493	13501
1481	13503
1495	13506
1518	13508
1544	13511
1545	13513
1511	13516
1505	13518
1530	13520
1582	13523
1588	13526
1554	13529
1531	13531
1508	13534
1465	13536
1443	13539
1457	13541
1451	13544
1440	13546
1444	13548
1487	13551
1500	13553
1515	13556
1564	13558
1617	13561
1616	13563
1575	13566
1554	13569
1549	13572
1544	13574
1519	13577
1490	13579
1481	13581
1489	13584
1498	13586
1502	13589
1472	13591
1434	13594
1433	13596
1472	13599
1515	13601
1545	13604
1540	13606
1518	13608
1456	13612
1425	13614
1447	13617
1507	13619
1529	13622
1517	13624
1520	13627
1521	13629
1526	13632
1524	13634
1536	13636
1561	13639
1574	13641
1583	13644
1576	13646
1558	13649
1529	13651
1512	13655
1504	13657
1486	13660
1464	13662
1448	13664
1414	13667
1385	13669
1389	13672
1427	13674
1478	13677
1490	13679
1515	13682
1537	13684
1532	13687
1523	13689
1516	13692
1516	13694
1515	13697
1502	13700
1471	13702
1460	13705
1475	13707
1510	13710
1543	13712
1569	13715
1549	13717
1493	13720
1437	13722
1412	13724
1428	13727
1439	13729
1459	13732
1483	13734
1518	13737
1530	13740
1519	13743
1489	13745
1484	13748
1498	13750
1495	13752
1483	13755
1480	13757
1489	13760
1493	13762
1491	13765
1486	13767
1482	13770
1477	13772
1447	13775
1423	13777
1422	13780
1448	13783
1476	13785
1482	13788
1485	13790
1488	13793
1489	13795
1459	13798
1421	13800
1399	13803
1408	13805
1413	13808
1431	13810
1468	13812
1503	13815
1550	13817
1552	13820
1521	13822
1507	13826
1509	13828
1525	13831
1520	13833
1474	13836
1441	13838
1452	13840
1497	13843
1497	13845
1468	13848
1458	13850
1461	13853
1449	13855
1442	13858
1445	13860
1472	13863
1496	13865
1509	13868
1526	13871
1539	13873
1527	13876
1524	13878
1533	13881
1544	13883
1528	13886
1469	13888
1398	13891
1367	13893
1375	13896
1409	13898
1462	13900
1504	13903
1534	13905
1556	13908
1549	13911
1520	13914
1470	13916
1456	13919
1478	13921
1530	13924
1558	13926
1526	13928
1472	13931
1445	13933
1440	13936
1432	13938
1433	13941
1460	13943
1521	13946
1572	13948
1582	13952
1589	13954
1574	13956
1479	13959
1385	13961
1384	13964
1449	13966
1521	13969
1557	13971
1533	13974
1508	13976
1483	13979
1505	13981
1536	13984
1555	13986
1542	13988
1513	13991
1500	13993
1498	13997
1506	13999
1492	14002
1482	14004
1494	14007
1500	14009
1508	14012
1517	14014
1533	14016
1549	14019
1523	14021
1474	14024
1429	14026
1445	14029
1492	14031
1505	14034
1528	14036
1534	14040
1557	14042
1573	14044
1583	14047
1579	14049
1544	14052
1518	14054
1470	14057
1442	14059
1458	14062
1504	14064
1534	14067
1546	14069
1545	14071
1538	14074
1526	14076
1522	14080
1520	14082
1517	14085
1509	14087
1490	14090
1471	14092
1451	14095
1458	14097
1472	14100
1468	14102
1470	14104
1499	14107
1549	14109
1598	14112
1603	14114
1584	14117
1562	14119
1538	14123
1524	14125
1505	14128
1491	14130
1486	14132
1483	14135
1468	14137
1445	14140
1434	14142
1443	14145
1466	14147
1496	14150
1520	14152
1535	14155
1542	14157
1516	14159
1477	14162
1439	14164
1420	14168
1442	14170
1482	14173
1508	14175
1522	14178
1521	14180
1513	14183
1513	14185
1507	14188
1444	14190
1399	14192
1414	14195
1472	14197
1511	14200
1514	14202
1536	14205
1557	14208
1516	14211
1441	14213
1422	14216
1443	14218
1493	14220
1524	14223
1518	14225
1501	14228
1499	14230
1503	14233
1522	14235
1540	14238
1503	14240
1470	14243
1486	14245
1535	14247
1568	14251
1552	14253
1513	14256
1502	14258
1487	14261
1482	14263
1492	14266
1499	14268
1491	14271
1501	14273
1530	14276
1560	14278
1572	14280
1566	14283
1562	14285
1544	14288
1508	14290
1478	14294
1454	14296
1449	14299
1447	14301
1465	14304
1483	14306
1487	14308
1479	14311
1474	14313
1493	14316
1535	14318
1547	14321
1521	14323
1488	14326
1484	14328
1494	14331
1475	14333
1405	14336
1378	14339
1384	14341
1456	14344
1542	14346
1575	14349
1548	14351
1507	14354
1487	14356
1478	14359
1481	14361
1504	14363
1514	14366
1521	14368
1527	14371
1524	14373
1497	14376
1437	14379
1384	14382
1372	14384
1417	14387
1492	14389
1527	14392
1494	14394
1459	14396
1454	14399
1487	14401
1515	14404
1509	14406
1445	14409
1400	14411
1403	14414
1440	14416
1496	14419
1529	14422
1508	14424
1428	14427
1356	14429
1379	14432
1467	14434
1538	14437
1554	14439
1538	14442
1530	14444
1542	14447
1546	14449
1540	14451
1531	14454
1508	14456
1468	14459
1450	14461
1451	14465
1454	14467
1434	14470
1423	14472
1434	14475
1474	14477
1532	14480
1584	14482
1593	14484
1568	14487
1521	14489
1475	14492
1477	14494
1493	14497
1508	14499
1454	14502
1410	14504
1416	14508
1479	14510
1539	14512
1539	14515
1524	14517
1505	14520
1518	14522
1536	14525
1549	14527
1551	14530
1549	14532
1556	14535
1557	14537
1545	14539
1512	14542
1466	14544
1442	14547
1460	14550
1487	14553
1497	14555
1493	14558
1495	14560
1491	14563
1482	14565
1477	14567
1496	14570
1479	14572
1432	14575
1400	14577
1393	14580
1431	14582
1482	14585
1481	14587
1452	14590
1426	14593
1442	14596
1483	14598
1490	14600
1459	14603
1436	14605
1435	14608
1450	14610
1455	14613
1453	14615
1457	14618
1463	14620
1465	14623
1444	14625
1415	14627
1395	14630
1394	14632
1405	14636
1398	14638
1383	14641
1388	14643
1405	14646
1421	14648
1421	14651
1408	14653
1406	14655
1400	14658
1414	14660
1447	14663
1475	14665
1474	14668
1463	14670
1442	14673
1432	14675
1446	14679
1437	14681
1416	14684
1384	14686
1397	14688
1440	14691
1483	14693
1501	14696
1505	14698
1507	14701
1532	14703
1525	14706
1496	14708
1497	14711
1508	14713
1511	14715
1489	14718
1452	14721
1440	14724
1440	14726
1428	14729
1393	14731
1373	14734
1396	14736
1433	14739
1473	14741
1486	14743
1479	14746
1476	14748
1476	14751
1492	14753
1498	14756
1499	14758
1511	14761
1556	14764
1594	14767
1582	14769
1531	14772
1484	14774
1459	14776
1449	14779
1444	14781
1405	14784
1368	14786
1375	14789
1436	14791
1510	14794
1547	14796
1555	14799
1551	14801
1563	14803
1558	14807
1521	14809
1476	14812
1433	14814
1433	14817
1459	14819
1491	14822
1508	14824
1498	14827
1469	14829
1427	14831
1420	14834
1401	14836
1410	14839
1410	14841
1445	14844
1488	14846
1498	14850
1505	14852
1537	14855
1583	14857
1583	14860
1545	14862
1521	14864
1465	14867
1429	14869
1438	14872
1486	14874
1511	14877
1496	14879
1473	14882
1469	14884
1488	14887
1484	14889
1467	14892
1469	14895
1471	14897
1490	14900
1516	14902
1529	14905
1544	14907
1533	14910
1503	14912
1490	14915
1462	14917
1454	14919
1477	14922
1508	14924
1527	14927
1525	14929
1521	14932
1536	14935
1567	14938
1542	14940
1501	14943
1456	14945
1452	14947
1489	14950
1506	14952
1509	14955
1498	14957
1468	14960
1453	14962
1469	14965
1526	14967
1578	14970
1586	14972
1566	14976
1533	14978
1512	14980
1511	14983
1505	14985
1497	14988
1483	14990
1459	14993
1459	14995
1439	14998
1422	15000
1422	15003
1438	15005
1420	15007
1413	15010
1449	15012
1505	15015
1519	15017
1499	15021
1489	15023
1488	15026
1495	15028
1502	15031
1504	15033
1489	15035
1462	15038
1448	15040
1462	15043
1482	15045
1492	15048
1489	15050
1474	15053
1455	15055
1450	15058
1427	15060
1418	15064
1420	15066
1440	15068
1478	15071
1501	15073
1504	15076
1495	15078
1495	15081
1480	15083
1433	15086
1419	15088
1469	15091
1527	15093
1523	15095
1455	15098
1400	15100
1405	15104
1461	15106
1527	15109
1568	15111
1601	15114
1607	15116
1564	15119
1498	15121
1443	15123
1436	15126
1483	15128
1537	15131
1577	15133
1593	15136
1593	15138
1585	15141
1571	15143
1548	15147
1515	15149
1490	15152
1508	15154
1527	15156
1524	15159
1516	15161
1513	15164
1523	15166
1511	15169
1463	15171
1424	15174
1428	15176
1472	15179
1507	15181
1530	15183
1553	15186
1575	15188
1590	15192
1576	15194
1541	15197
1514	15199
1500	15202
1506	15204
1512	15207
1499	15209
1477	15211
1460	15214
1449	15216
1440	15219
1440	15221
1455	15224
1463	15226
1446	15229
1416	15232
1429	15235
1470	15237
1507	15240
1522	15242
1517	15244
1510	15247
1531	15249
1554	15252
1577	15254
1564	15257
1521	15259
1465	15262
1446	15264
1454	15267
1493	15269
1522	15271
1522	15275
1504	15277
1496	15280
1490	15282
1493	15285
1522	15287
1542	15290
1532	15292
1483	15295
1431	15297
1430	15299
1473	15302
1508	15304
1518	15307
1523	15309
1530	15312
1513	15314
1512	15318
1527	15320
1533	15323
1520	15325
1488	15328
1459	15330
1459	15332
1468	15335
1463	15337
1450	15340
1445	15342
1465	15345
1493	15347
1498	15350
1493	15352
1492	15355
1499	15357
1529	15360
1546	15363
1554	15365
1527	15368
1438	15370
1394	15373
1405	15375
1437	15378
1477	15380
1520	15383
1549	15385
1553	15387
1526	15390
1485	15392
1476	15395
1488	15397
1503	15400
1502	15403
1488	15406
1486	15408
1510	15411
1531	15413
1536	15416
1529	15418
1512	15420
1483	15423
1461	15425
1453	15428
1462	15430
1456	15433
1463	15435
1502	15438
1557	15440
1582	15443
1567	15446
1523	15448
1477	15451
1472	15453
1483	15456
1478	15458
1418	15461
1367	15463
1373	15466
1434	15468
1509	15471
1587	15473
1622	15475
1612	15478
1554	15480
1489	15483
1483	15485
1517	15489
1536	15491
1530	15494
1500	15496
1473	15499
1467	15501
1471	15503
1471	15506
1478	15508
1520	15511
1530	15513
1510	15516
1497	15518
1526	15521
1538	15523
1487	15526
1442	15528
1464	15532
1494	15534
1495	15536
1472	15539
1445	15541
1448	15544
1476	15546
1524	15549
1549	15551
1557	15554
1518	15556
1458	15559
1393	15561
1373	15563
1430	15566
1523	15568
1557	15571
1548	15574
1514	15577
1513	15579
1546	15582
1579	15584
1593	15587
1579	15589
1540	15591
1518	15594
1510	15596
1481	15599
1459	15601
1433	15604
1443	15606
1475	15609
1501	15611
1503	15614
1503	15617
1526	15620
1559	15622
1561	15624
1548	15627
1517	15629
1506	15632
1513	15634
1491	15637
1464	15639
1457	15642
1475	15644
1488	15647
1495	15649
1499	15651
1503	15654
1489	15656
1438	15660
1416	15662
1435	15665
1452	15667
1466	15670
1454	15672
1442	15675
1457	15677
1482	15679
1520	15682
1553	15684
1536	15687
1498	15689
1482	15692
1493	15694
1533	15697
1534	15699
1508	15703
1461	15705
1444	15708
1468	15710
1508	15712
1545	15715
1537	15717
1512	15720
1497	15722
1515	15725
1496	15727
1450	15730
1419	15732
1466	15735
1548	15737
1571	15739
1557	15742
1561	15745
1573	15748
1567	15750
1556	15753
1563	15755
1571	15758
1518	15760
1421	15763
1362	15765
1391	15767
1448	15770
1486	15772
1508	15775
1558	15777
1607	15780
1619	15782
1591	15785
1535	15788
1474	15791
1445	15793
1450	15795
1461	15798
1433	15800
1422	15803
1476	15805
1567	15808
1552	15810
1446	15813
1386	15815
1416	15818
1506	15820
1583	15823
1560	15825
1527	15827
1508	15831
1540	15833
1594	15836
1618	15838
1592	15841
1533	15843
1490	15846
1461	15848
1454	15851
1488	15853
1575	15855
1635	15858
1625	15860
1572	15863
1518	15865
1514	15868
1541	15870
1534	15874
1500	15876
1487	15879
1484	15881
1462	15883
1435	15886
1438	15888
1487	15891
1559	15893
1603	15896
1607	15898
1514	15901
1419	15903
1412	15906
1475	15908
1586	15911
1610	15913
1557	15916
1490	15919
1463	15921
1481	15924
1486	15926
1438	15929
1401	15931
1414	15934
1470	15936
1545	15939
1587	15941
1577	15943
1556	15946
1539	15948
1520	15951
1497	15953
1474	15956
1448	15959
1434	15962
1458	15964
1471	15967
1472	15969
1476	15971
1499	15974
1526	15976
1547	15979
1552	15981
1557	15984
1562	15986
1538	15989
1459	15991
1362	15994
1315	15996
1342	16000
1431	16002
1508	16004
1510	16007
1443	16009
1402	16012
1441	16014
1518	16017
1567	16019
1510	16022
1445	16024
1430	16027
1457	16029
1489	16031
1496	16034
1491	16036
1487	16039
1494	16041
1501	16045
1511	16047
1524	16050
1504	16052
1442	16055
1423	16057
1451	16059
1490	16062
1502	16064
1480	16067
1453	16069
1439	16072
1456	16074
1446	16077
1433	16079
1430	16082
1467	16084
1504	16087
1511	16090
1476	16092
1456	16095
1489	16097
1542	16100
1539	16102
1498	16105
1448	16107
1446	16110
1467	16112
1453	16115
1409	16117
1382	16119
1402	16122
1452	16124
1506	16128
1549	16130
1534	16133
1498	16135
1481	16138
1518	16140
1570	16143
1581	16145
1534	16147
1465	16150
1388	16152
1358	16155
1389	16157
1448	16160
1497	16162
1531	16165
1522	16167
1507	16171
1473	16173
1455	16175
1467	16178
1501	16180
1542	16183
1537	16185
1506	16188
1420	16190
1359	16193
1345	16195
1400	16198
1498	16200
1541	16202
1503	16205
1427	16207
1391	16210
1437	16212
1501	16216
1551	16218
1572	16221
1521	16223
1459	16226
1400	16228
1392	16231
1464	16233
1550	16235
1585	16238
1570	16240
1535	16243
1541	16245
1584	16248
1610	16250
1597	16253
1566	16256
1538	16259
1508	16261
1491	16263
1474	16266
1454	16268
1430	16271
1423	16273
1440	16276
1475	16278
1517	16281
1528	16283
1528	16286
1535	16288
1526	16290
1508	16293
1485	16295
1463	16299
1451	16301
1459	16304
1456	16306
1427	16309
1374	16311
1351	16314
1384	16316
1484	16319
1587	16321
1602	16323
1562	16326
1519	16328
1500	16331
1493	16333
1441	16336
1372	16338
1332	16342
1359	16344
1441	16347
1490	16349
1519	16351
1526	16354
1530	16356
1546	16359
1550	16361
1538	16364
1517	16366
1506	16369
1507	16371
1521	16374
1517	16376
1466	16378
1434	16381
1431	16384
1464	16387
1499	16389
1529	16392
1533	16394
1521	16397
1499	16399
1471	16402
1465	16404
1496	16406
1531	16409
1547	16411
1512	16414
1457	16416
1411	16419
1421	16421
1459	16424
1493	16427
1489	16430
1474	16432
1472	16435
1492	16437
1516	16439
1541	16442
1554	16444
1534	16447
1507	16449
1501	16452
1528	16454
1535	16457
1515	16459
1480	16462
1468	16464
1482	16466
1486	16470
1482	16472
1473	16475
1455	16477
1454	16480
1473	16482
1495	16485
1512	16487
1514	16490
1498	16492
1488	16494
1478	16497
1479	16499
1474	16502
1467	16504
1457	16507
1468	16509
1486	16513
1502	16515
1495	16518
1487	16520
1475	16523
1467	16525
1464	16527
1481	16530
1512	16532
1546	16535
1565	16537
1551	16540
1479	16542
1420	16545
1386	16547
1403	16550
1461	16552
1521	16555
1553	16558
1551	16560
1531	16563
1512	16565
1498	16568
1447	16570
1416	16573
1399	16575
1437	16578
1483	16580
1535	16582
1548	16585
1539	16587
1516	16590
1495	16592
1505	16595
1495	16598
1473	16601
1439	16603
1438	16606
1460	16608
1477	16611
1476	16613
1445	16615
1418	16618
1426	16620
1460	16623
1491	16625
1495	16628
1491	16630
1501	16633
1531	16635
1554	16638
1560	16641
1543	16643
1515	16646
1497	16648
1508	16651
1533	16653
1536	16656
1524	16658
1525	16661
1523	16663
1505	16666
1487	16668
1492	16670
1500	16673
1507	16675
1489	16678
1461	16680
1451	16684
1469	16686
1486	16689
1495	16691
1496	16694
1529	16696
1534	16698
1507	16701
1482	16703
1455	16706
1453	16708
1449	16711
1441	16713
1464	16716
1517	16718
1574	16721
1596	16723
1551	16727
1501	16729
1446	16731
1444	16734
1504	16736
1569	16739
1557	16741
1502	16744
1465	16746
1473	16749
1515	16751
1557	16754
1517	16756
1439	16758
1396	16761
1447	16763
1562	16766
1632	16769
1628	16772
1581	16774
1520	16777
1480	16779
1466	16782
1469	16784
1477	16786
1482	16789
1481	16791
1481	16794
1493	16796
1501	16799
1486	16801
1447	16804
1406	16806
1412	16809
1470	16812
1539	16815
1530	16817
1498	16819
1487	16822
1551	16824
1625	16827
1634	16829
1594	16832
1532	16834
1510	16837
1524	16839
1524	16842
1469	16844
1421	16846
1412	16849
1454	16851
1504	16855
1524	16857
1520	16860
1511	16862
1467	16865
1409	16867
1379	16870
1406	16872
1466	16874
1462	16877
1426	16879
1419	16882
1489	16884
1592	16887
1650	16889
1662	16892
1625	16894
1566	16898
1498	16900
1438	16902
1434	16905
1471	16907
1525	16910
1547	16912
1543	16915
1511	16917
1431	16920
1340	16922
1323	16925
1403	16927
1516	16930
1592	16932
1624	16934
1624	16937
1612	16940
1601	16943
1581	16945
1552	16948
1513	16950
1481	16953
1449	16955
1450	16958
1492	16960
1502	16962
1460	16965
1406	16967
1392	16970
1432	16972
1475	16975
1502	16977
1546	16980
1565	16983
1565	16986
1553	16988
1545	16990
1548	16993
1567	16995
1548	16998
1457	17000
1346	17003
1311	17005
1396	17008
1517	17010
1607	17013
1639	17015
1634	17018
1604	17020
1563	17022
1529	17026
1523	17028
1508	17031
1482	17033
1455	17036
1456	17038
1497	17041
1526	17043
1513	17046
1481	17048
1457	17050
1432	17053
1434	17055
1435	17058
1453	17060
1478	17063
1489	17065
1477	17069
1489	17071
1525	17074
1577	17076
1575	17078
1543	17081
1517	17083
1521	17086
1509	17088
1470	17091
1442	17093
1425	17096
1412	17098
1426	17101
1469	17103
1547	17105
1595	17108
1603	17111
1589	17114
1552	17116
1471	17119
1407	17121
1372	17124
1405	17126
1476	17129
1537	17131
1565	17134
1555	17136
1537	17138
1540	17141
1539	17143
1535	17146
1518	17148
1486	17152
1473	17154
1466	17157
1441	17159
1415	17162
1391	17164
1405	17166
1437	17169
1479	17171
1543	17174
1609	17176
1621	17179
1583	17181
1523	17184
1492	17186
1467	17189
1477	17191
1491	17193
1514	17197
1532	17199
1525	17202
1505	17204
1422	17207
1369	17209
1362	17212
1446	17214
1577	17217
1645	17219
1623	17222
1554	17224
1466	17226
1425	17229
1432	17231
1467	17234
1501	17236
1511	17240
1501	17242
1499	17245
1485	17247
1465	17250
1454	17252
1474	17254
1534	17257
1578	17259
1588	17262
1563	17264
1531	17267
1504	17269
1467	17272
1454	17274
1456	17277
1478	17280
1501	17282
1519	17285
1518	17287
1525	17290
1526	17292
1507	17295
1489	17297
1465	17300
1427	17302
1377	17305
1372	17307
1421	17310
1526	17312
1596	17314
1611	17317
1560	17319
1514	17323
1514	17325
1530	17328
1521	17330
1501	17333
1475	17335
1421	17338
1375	17340
1347	17342
1356	17345
1383	17347
1426	17350
1490	17352
1564	17355
1637	17357
1652	17360
1592	17362
1521	17366
1466	17368
1467	17370
1491	17373
1511	17375
1489	17378
1456	17380
1436	17383
1412	17385
1430	17388
1472	17390
1525	17393
1544	17395
1551	17397
1561	17400
1584	17402
1591	17405
1549	17408
1492	17411
1474	17413
1488	17416
1485	17418
1470	17421
1434	17423
1408	17426
1409	17428
1405	17430
1437	17433
1470	17435
1493	17438
1522	17440
1534	17443
1523	17445
1526	17448
1527	17451
1536	17454
1529	17456
1520	17458
1515	17461
1495	17463
1461	17466
1414	17468
1374	17471
1330	17473
1321	17476
1347	17478
1435	17481
1555	17483
1621	17485
1594	17488
1546	17490
1511	17494
1518	17496
1573	17499
1616	17501
1623	17504
1568	17506
1498	17509
1453	17511
1461	17514
1493	17516
1501	17518
1463	17521
1434	17523
1461	17526
1503	17528
1501	17531
1481	17533
1494	17537
1571	17539
1629	17542
1643	17544
1606	17546
1552	17549
1517	17551
1494	17554
1486	17556
1506	17559
1510	17561
1489	17564
1456	17566
1436	17569
1431	17571
1467	17573
1518	17576
1557	17579
1557	17582
1522	17584
1489	17587
1486	17589
1488	17592
1490	17594
1483	17597
1498	17599
1504	17602
1495	17604
1470	17606
1450	17609
1466	17611
1498	17614
1500	17616
1467	17619
1446	17622
1475	17625
1537	17627
1579	17630
1586	17632
1565	17634
1551	17637
1534	17639
1508	17642
1458	17644
1424	17647
1428	17649
1506	17652
1557	17654
1554	17657
1519	17659
1463	17661
1430	17665
1419	17667
1435	17670
1414	17672
1411	17675
1411	17677
1422	17680
1446	17682
1464	17685
1486	17687
1515	17689
1531	17692
1538	17694
1544	17697
1548	17699
1533	17702
1501	17704
1486	17708
1444	17710
1378	17713
1336	17715
1341	17718
1412	17720
1481	17722
1519	17725
1518	17727
1511	17730
1505	17732
1518	17735
1521	17737
1484	17740
1423	17742
1402	17745
1452	17747
1500	17750
1527	17753
1522	17755
1498	17758
1470	17760
1457	17763
1456	17765
1462	17768
1475	17770
1423	17773
1400	17775
1409	17777
1444	17780
1505	17782
1533	17785
1540	17787
1513	17790
1462	17793
1435	17796
1432	17798
1476	17801
1539	17803
1571	17806
1560	17808
1531	17810
1502	17813
1469	17815
1431	17818
1421	17820
1423	17823
1470	17825
1543	17828
1605	17830
1599	17833
1545	17836
1493	17838
1448	17841
1478	17843
1524	17846
1528	17848
1494	17851
1482	17853
1462	17856
1422	17858
1394	17861
1407	17863
1448	17865
1485	17868
1498	17870
1508	17873
1504	17875
1494	17879
1461	17881
1423	17884
1418	17886
1455	17889
1512	17891
1545	17894
1551	17896
1554	17898
1568	17901
1573	17903
1547	17906
1512	17908
1501	17911
1507	17913
1516	17916
1521	17918
1544	17922
1543	17924
1518	17926
1458	17929
1416	17931
1423	17934
1460	17936
1492	17939
1551	17941
1600	17944
1601	17946
1574	17949
1517	17951
1478	17953
1483	17956
1501	17958
1517	17961
1513	17964
1477	17967
1443	17969
1427	17972
1429	17974
1460	17977
1493	17979
1518	17982
1532	17984
1565	17986
1594	17989
1580	17991
1533	17994
1504	17996
1517	17999
1545	18001
1574	18004
1575	18007
1543	18010
1486	18012
1452	18014
1447	18017
1469	18019
1456	18022
1449	18024
1466	18027
1502	18029
1550	18032
1596	18034
1623	18037
1628	18039
1608	18041
1575	18044
1536	18046
1499	18050
1410	18052
1351	18055
1362	18057
1456	18060
1543	18062
1524	18065
1460	18067
1408	18070
1414	18072
1433	18074
1442	18077
1446	18079
1459	18082
1507	18084
1559	18087
1559	18089
1514	18093
1462	18095
1443	18098
1465	18100
1485	18102
1492	18105
1503	18107
1524	18110
1534	18112
1506	18115
1495	18117
1469	18120
1444	18122
1423	18125
1420	18127
1428	18129
1478	18132
1512	18135
1523	18138
1533	18140
1551	18143
1570	18145
1559	18148
1535	18150
1510	18153
1502	18155
1504	18158
1505	18160
1462	18162
1393	18165
1343	18167
1375	18170
1469	18172
1554	18176
1614	18178
1653	18181
1658	18183
1621	18186
1567	18188
1518	18190
1509	18193
1507	18195
1533	18198
1555	18200
1562	18203
1543	18205
1487	18208
1402	18210
1334	18213
1328	18215
1389	18217
1459	18221
1512	18223
1528	18226
1533	18228
1524	18231
1527	18233
1517	18236
1509	18238
1503	18241
1512	18243
1534	18245
1530	18248
1494	18250
1434	18253
1381	18255
1367	18258
1395	18260
1439	18264
1486	18266
1515	18269
1525	18271
1519	18274
1520	18276
1532	18278
1540	18281
1559	18283
1579	18286
1570	18288
1504	18291
1435	18293
1411	18296
1435	18298
1466	18301
1501	18304
1527	18306
1543	18309
1547	18311
1546	18314
1546	18316
1559	18319
1563	18321
1553	18324
1545	18326
1507	18329
1456	18331
1391	18333
1392	18336
1441	18338
1499	18341
1549	18343
1566	18347
1565	18349
1548	18352
1530	18354
1525	18357
1514	18359
1518	18362
1524	18364
1522	18366
1528	18369
1461	18371
1374	18374
1357	18376
1420	18379
1506	18381
1554	18384
1535	18386
1517	18390
1538	18392
1584	18394
1612	18397
1613	18399
1600	18402
1569	18404
1540	18407
1492	18409
1393	18412
1324	18414
1331	18417
1425	18419
1495	18421
1510	18424
1483	18426
1479	18429
1511	18432
1558	18435
1585	18437
1580	18440
1557	18442
1486	18445
1425	18447
1417	18450
1455	18452
1493	18454
1509	18457
1501	18459
1514	18462
1560	18464
1570	18467
1538	18469
1482	18472
1489	18475
1493	18478
1499	18480
1495	18482
1508	18485
1536	18487
1541	18490
1520	18492
1500	18495
1503	18497
1511	18500
1505	18502
1482	18505
1475	18507
1462	18509
1463	18512
1463	18514
1443	18518
1426	18520
1439	18523
1486	18525
1551	18528
1593	18530
1593	18533
1580	18535
1558	18537
1534	18540
1515	18542
1497	18545
1454	18547
1423	18550
1418	18552
1464	18555
1514	18557
1511	18561
1487	18563
1462	18566
1426	18568
1405	18570
1409	18573
1430	18575
1473	18578
1551	18580
1586	18583
1545	18585
1474	18588
1449	18590
1468	18593
1520	18595
1537	18597
1503	18600
1479	18603
1472	18606
1485	18608
1491	18611
1468	18613
1451	18616
1460	18618
1489	18621
1471	18623
1426	18625
1381	18628
1363	18630
1407	18633
1466	18635
1511	18638
1510	18640
1492	18643
1471	18646
1429	18649
1435	18651
1463	18654
1491	18656
1484	18658
1448	18661
1440	18663
1471	18666
1544	18668
1602	18671
1611	18673
1589	18676
1558	18678
1519	18681
1508	18683
1481	18685
1422	18689
1362	18691
1342	18694
1362	18696
1412	18699
1468	18701
1515	18704
1538	18706
1546	18709
1543	18711
1521	18713
1525	18716
1548	18718
1587	18721
1598	18723
1577	18726
1517	18728
1440	18732
1396	18734
1410	18737
1452	18739
1492	18741
1535	18744
1559	18746
1560	18749
1563	18751
1561	18754
1551	18756
1548	18759
1551	18761
1555	18764
1565	18766
1557	18769
1512	18771
1464	18774
1410	18777
1373	18779
1330	18782
1330	18784
1384	18787
1481	18789
1572	18792
1588	18794
1553	18797
1519	18799
1510	18801
1501	18804
1479	18806
1443	18809
1417	18811
1430	18814
1473	18817
1524	18820
1559	18822
1563	18825
1541	18827
1510	18829
1489	18832
1475	18834
1479	18837
1470	18839
1485	18842
1506	18844
1519	18847
1527	18849
1521	18852
1494	18854
1480	18857
1497	18860
1546	18862
1573	18865
1559	18867
1515	18870
1461	18872
1431	18875
1421	18877
1448	18880
1489	18882
1519	18885
1551	18887
1563	18889
1557	18892
1547	18894
1548	18897
1564	18899
1589	18903
1547	18905
1477	18908
1427	18910
1440	18913
1482	18915
1509	18917
1477	18920
1437	18922
1427	18925
1442	18927
1450	18930
1461	18932
1479	18935
1506	18937
1541	18940
1569	18942
1583	18945
1577	18948
1569	18950
1506	18953
1399	18955
1349	18958
1373	18960
1471	18963
1546	18965
1570	18968
1518	18970
1463	18973
1451	18975
1472	18977
1491	18980
1492	18982
1488	18985
1467	18988
1410	18991
1391	18993
1450	18996
1557	18998
1635	19001
1643	19003
1619	19005
1578	19008
1527	19010
1472	19013
1415	19015
1386	19018
1370	19020
1387	19023
1392	19025
1402	19028
1433	19031
1491	19033
1543	19036
1553	19038
1514	19041
1482	19043
1473	19046
1469	19048
1456	19051
1455	19053
1486	19056
1540	19058
1562	19061
1542	19063
1493	19065
1432	19068
1427	19070
1456	19074
1518	19076
1574	19079
1588	19081
1544	19084
1505	19086
1448	19089
1430	19091
1454	19093
1483	19096
1512	19098
1499	19101
1449	19103
1429	19106
1473	19108
1561	19111
1621	19113
1603	19117
1523	19119
1470	19121
1464	19124
1498	19126
1553	19129
1578	19131
1557	19134
1522	19136
1472	19139
1438	19141
1437	19144
1464	19146
1511	19149
1552	19151
1564	19153
1550	19156
1540	19159
1545	19162
1567	19164
1591	19167
1602	19169
1574	19172
1517	19174
1459	19177
1418	19179
1370	19181
1343	19184
1336	19186
1383	19189
1452	19191
1506	19194
1550	19196
1588	19200
1592	19202
1573	19205
1559	19207
1547	19209
1542	19212
1539	19214
1517	19217
1489	19219
1501	19222
1527	19224
1510	19227
1462	19229
1433	19232
1457	19234
1499	19237
1536	19239
1557	19241
1556	19245
1551	19247
1553	19250
1565	19252
1585	19255
1587	19257
1567	19260
1515	19262
1434	19265
1398	19267
1423	19269
1473	19272
1496	19274
1506	19277
1520	19279
1544	19282
1570	19284
1580	19288
1598	19290
1607	19293
1600	19295
1583	19297
1556	19300
1512	19302
1472	19305
1441	19307
1430	19310
1445	19312
1473	19315
1504	19317
1525	19320
1532	19322
1523	19324
1492	19328
1451	19330
1438	19333
1436	19335
1441	19338
1445	19340
1458	19343
1486	19345
1535	19348
1518	19350
1493	19353
1467	19355
1481	19357
1529	19360
1530	19362
1505	19365
1483	19367
1490	19371
1520	19373
1541	19376
1540	19378
1538	19381
1534	19383
1541	19385
1532	19388
1491	19390
1441	19393
1404	19395
1416	19398
1460	19400
1494	19403
1470	19405
1446	19408
1397	19410
1384	19412
1426	19416
1522	19418
1602	19421
1600	19423
1556	19426
1496	19428
1464	19431
1464	19433
1482	19436
1502	19438
1452	19441
1404	19443
1394	19445
1427	19448
1509	19450
1574	19453
1580	19456
1569	19459
1561	19461
1530	19464
1520	19466
1534	19469
1546	19471
1517	19473
1470	19476
1449	19478
1456	19481
1463	19483
1472	19486
1497	19488
1538	19491
1566	19493
1561	19496
1518	19499
1478	19501
1475	19504
1509	19506
1523	19509
1521	19511
1513	19514
1520	19516
1505	19519
1485	19521
1475	19524
1478	19526
1490	19528
1486	19531
1463	19533
1463	19536
1480	19538
1488	19542
1490	19544
1502	19547
1526	19549
1555	19552
1567	19554
1535	19557
1498	19559
1498	19561
1534	19564
1587	19566
1601	19569
1573	19571
1532	19574
1500	19576
1473	19579
1457	19581
1447	19585
1445	19587
1453	19589
1471	19592
1499	19594
1495	19597
1443	19599
1388	19602
1370	19604
1412	19607
1447	19609
1478	19612
1468	19614
1403	19616
1335	19619
1323	19621
1388	19624
1512	19627
1587	19630
1590	19632
1574	19635
1563	19637
1532	19640
1503	19642
1482	19645
1480	19647
1487	19649
1495	19652
1509	19654
1527	19657
1514	19659
1462	19662
1436	19664
1454	19667
1505	19670
1545	19673
1521	19675
1484	19677
1447	19680
1457	19682
1470	19685
1478	19687
1479	19690
1488	19692
1457	19695
1445	19697
1471	19700
1536	19702
1627	19704
1645	19707
1604	19709
1545	19713
1527	19715
1522	19718
1485	19720
1436	19723
1431	19725
1465	19728
1490	19730
1505	19733
1492	19735
1487	19737
1502	19740
1538	19742
1581	19745
1597	19747
1567	19750
1533	19752
1505	19756
1523	19758
1555	19761
1562	19763
1537	19765
1491	19768
1450	19770
1408	19773
1401	19775
1431	19778
1486	19780
1527	19783
1529	19785
1501	19788
1476	19790
1476	19792
1498	19795
1523	19798
1526	19801
1507	19803
1481	19806
1462	19808
1469	19811
1493	19813
1503	19816
1461	19818
1383	19821
1318	19823
1326	19825
1416	19828
1524	19830
1561	19833
1540	19835
1523	19838
1541	19841
1556	19844
1539	19846
1509	19849
1500	19851
1523	19853
1539	19856
1546	19858
1543	19861
1534	19863
1521	19866
1500	19868
1487	19871
1471	19873
1458	19876
1456	19878
1465	19880
1495	19884
1513	19886
1511	19889
1506	19891
1515	19894
1540	19896
1554	19899
1554	19901
1547	19904
1518	19906
1479	19909
1457	19911
1426	19913
1425	19916
1455	19918
1507	19921
1532	19923
1523	19927
1498	19929
1475	19932
1448	19934
1448	19937
1485	19939
1547	19941
1572	19944
1559	19946
1528	19949
1522	19951
1532	19954
1490	19956
1440	19959
1397	19961
1400	19964
1445	19966
1494	19969
1527	19972
1559	19974
1544	19977
1515	19979
1495	19982
1499	19984
1521	19987
1544	19989
1546	19992
1515	19994
1472	19996
1444	19999
1434	20001
1458	20004
1504	20006
1528	20009
1540	20012
1546	20015
1540	20017
1540	20020
1525	20022
1471	20025
1416	20027
1367	20029
1371	20032
1425	20034
1494	20037
1534	20039
1540	20042
1533	20044
1538	20047
1550	20049
1557	20052
1560	20055
1560	20057
1562	20060
1549	20062
1507	20065
1463	20067
1453	20070
1478	20072
1489	20075
1457	20077
1395	20080
1370	20082
1405	20084
1485	20087
1535	20089
1529	20092
1495	20094
1478	20098
1491	20100
1512	20103
1521	20105
1532	20108
1527	20110
1511	20113
1489	20115
1482	20117
1491	20120
1486	20122
1475	20125
1483	20127
1509	20130
1528	20132
1530	20135
1504	20137
1484	20141
1482	20143
1490	20145
1508	20148
1519	20150
1504	20153
1501	20155
1497	20158
1469	20160
1421	20163
1385	20165
1380	20168
1408	20170
1445	20172
1495	20175
1532	20177
1542	20180
1538	20183
1523	20186
1501	20188
1504	20191
1531	20193
1551	20196
1543	20198
1519	20201
1528	20203
1544	20205
1568	20208
1544	20210
1512	20213
1488	20215
1486	20218
1503	20220
1528	20224
1537	20226
1520	20229
1484	20231
1435	20233
1439	20236
1455	20238
1511	20241
1585	20243
1638	20246
1657	20248
1648	20251
1636	20253
1620	20256
1594	20258
1524	20260
1454	20263
1430	20265
1467	20269
1504	20271
1488	20274
1451	20276
1440	20279
1463	20281
1520	20284
1546	20286
1525	20288
1507	20291
1516	20293
1547	20296
1580	20298
1583	20301
1569	20303
1562	20306
1548	20308
1528	20312
1518	20314
1508	20317
1473	20319
1440	20321
1412	20324
1418	20326
1447	20329
1459	20331
1465	20334
1466	20336
1477	20339
1506	20341
1526	20344
1538	20346
1546	20348
1544	20352
1535	20354
1531	20357
1532	20359
1527	20362
1524	20364
1515	20367
1499	20369
1482	20372
1479	20374
1446	20376
1437	20379
1429	20381
1446	20384
1470	20386
1477	20389
1462	20391
1448	20395
1462	20397
1510	20400
1510	20402
1482	20405
1451	20407
1453	20409
1495	20412
1533	20414
1536	20417
1499	20419
1464	20422
1456	20424
1485	20427
1529	20429
1547	20432
1535	20434
1518	20436
1501	20440
1492	20442
1494	20445
1488	20447
1463	20450
1432	20452
1411	20455
1404	20457
1425	20460
1448	20462
1470	20464
1492	20467
1482	20469
1453	20472
1411	20474
1411	20477
1444	20480
1476	20483
1501	20485
1502	20488
1488	20490
1475	20493
1472	20495
1472	20497
1443	20500
1394	20502
1340	20505
1327	20507
1363	20510
1442	20512
1526	20515
1562	20517
1531	20520
1485	20523
1459	20525
1476	20528
1481	20530
1463	20533
1440	20535
1436	20538
1456	20540
1503	20543
1530	20545
1528	20548
1524	20550
1538	20552
1563	20555
1539	20557
1505	20560
1497	20562
1519	20566
1550	20568
1556	20571
1530	20573
1498	20576
1467	20578
1456	20580
1470	20583
1491	20585
1502	20588
1500	20590
1508	20593
1508	20595
1497	20598
1474	20600
1441	20603
1417	20605
1416	20609
1444	20611
1508	20613
1545	20616
1561	20618
1554	20621
1556	20623
1563	20626
1550	20628
1518	20631
1489	20633
1470	20636
1440	20638
1412	20640
1399	20643
1405	20645
1418	20648
1443	20651
1476	20654
1494	20656
1511	20659
1497	20661
1485	20664
1495	20666
1516	20668
1513	20671
1495	20673
1466	20676
1454	20678
1460	20681
1454	20683
1410	20686
1367	20688
1354	20691
1396	20694
1440	20696
1485	20699
1496	20701
1476	20704
1473	20706
1470	20709
1467	20711
1483	20714
1515	20716
1532	20719
1510	20721
1457	20724
1421	20726
1421	20728
1405	20731
1408	20733
1420	20737
1450	20739
1501	20742
1535	20744
1538	20747
1532	20749
1532	20752
1535	20754
1534	20756
1539	20759
1553	20761
1567	20764
1559	20766
1527	20769
1491	20771
1475	20774
1460	20776
1441	20780
1407	20782
1388	20784
1401	20787
1412	20789
1432	20792
1471	20794
1544	20797
1619	20799
1642	20802
1634	20804
1616	20807
1585	20809
1557	20812
1534	20814
1523	20816
1520	20819
1513	20822
1486	20825
1470	20827
1471	20830
1468	20832
1467	20835
1440	20837
1373	20840
1329	20842
1307	20844
1327	20847
1367	20849
1376	20852
1350	20854
1336	20857
1336	20859
1388	20862
1467	20865
1525	20868
1545	20870
1538	20872
1532	20875
1513	20877
1493	20880
1478	20882
1486	20885
1524	20887
1562	20890
1576	20892
1569	20895
1545	20897
1484	20900
1420	20902
1402	20904
1440	20908
1491	20910
1507	20913
1482	20915
1454	20918
1453	20920
1480	20923
1484	20925
1456	20928
1399	20930
1366	20932
1342	20935
1353	20937
1406	20940
1474	20942
1501	20945
1486	20947
1458	20951
1454	20953
1484	20956
1524	20958
1547	20960
1558	20963
1553	20965
1505	20968
1455	20970
1434	20973
1451	20975
1473	20978
1482	20980
1476	20983
1468	20985
1497	20987
1500	20990
1492	20993
1468	20996
1483	20998
1519	21001
1543	21003
1542	21006
1530	21008
1554	21011
1591	21013
1603	21016
1576	21018
1505	21020
1431	21023
1416	21025
1457	21028
1482	21030
1491	21033
1483	21036
1476	21039
1478	21041
1477	21044
1465	21046
1482	21048
1523	21051
1563	21053
1573	21056
1558	21058
1520	21061
1494	21063
1484	21066
1488	21068
1500	21071
1520	21073
1534	21075
1530	21079
1520	21081
1513	21084
1512	21086
1507	21089
1486	21091
1458	21094
1446	21096
1452	21099
1470	21101
1488	21104
1501	21106
1506	21108
1510	21111
1510	21113
1486	21116
1470	21118
1475	21122
1507	21124
1534	21127
1528	21129
1491	21132
1453	21134
1425	21136
1429	21139
1461	21141
1505	21144
1533	21146
1552	21149
1558	21151
1539	21154
1505	21156
1485	21159
1466	21161
1470	21164
1473	21167
1460	21169
1432	21172
1445	21174
1508	21177
1544	21179
1566	21182
1549	21184
1514	21187
1499	21189
1528	21191
1561	21194
1564	21196
1544	21199
1513	21201
1443	21204
1378	21207
1342	21210
1335	21212
1367	21215
1411	21217
1453	21220
1523	21222
1578	21224
1598	21227
1567	21229
1532	21232
1544	21234
1577	21237
1589	21239
1574	21242
1542	21244
1504	21248
1475	21250
1467	21252
1482	21255
1475	21257
1468	21260
1483	21262
1515	21265
1560	21267
1581	21270
1574	21272
1535	21275
1481	21277
1446	21279
1464	21282
1506	21284
1543	21287
1531	21289
1481	21293
1453	21295
1471	21298
1502	21300
1547	21303
1571	21305
1578	21308
1579	21310
1570	21312
1591	21315
1608	21317
1601	21320
1573	21322
1504	21325
1401	21327
1343	21330
1336	21332
1371	21336
1430	21338
1469	21340
1518	21343
1560	21345
1576	21348
1577	21350
1575	21353
1579	21355
1572	21358
1545	21360
1479	21363
1412	21365
1330	21367
1337	21370
1393	21372
1482	21376
1552	21378
1571	21381
1563	21383
1551	21386
1542	21388
1531	21391
1516	21393
1480	21396
1447	21398
1437	21400
1490	21403
1518	21405
1521	21408
1509	21410
1502	21413
1528	21415
1514	21419
1492	21421
1482	21424
1496	21426
1538	21428
1580	21431
1598	21433
1592	21436
1546	21438
1495	21441
1471	21443
1491	21446
1506	21448
1517	21451
1534	21453
1563	21455
1539	21458
1493	21460
1447	21464
1442	21466
1492	21469
1565	21471
1601	21474
1571	21476
1509	21479
1454	21481
1426	21484
1451	21486
1499	21488
1529	21491
1545	21493
1563	21496
1564	21498
1575	21501
1544	21504
1493	21507
1457	21509
1429	21512
1438	21514
1478	21516
1546	21519
1593	21521
1579	21524
1536	21526
1499	21529
1480	21531
1482	21534
1501	21536
1539	21539
1544	21541
1541	21543
1551	21547
1559	21549
1571	21552
1574	21554
1556	21557
1536	21559
1541	21562
1536	21564
1511	21567
1478	21569
1441	21571
1428	21574
1411	21576
1398	21579
1397	21581
1406	21584
1442	21586
1489	21590
1545	21592
1575	21595
1575	21597
1584	21600
1611	21602
1593	21604
1517	21607
1412	21609
1361	21612
1389	21614
1440	21617
1477	21619
1484	21622
1487	21624
1503	21627
1550	21629
1579	21632
1584	21635
1550	21637
1516	21640
1489	21642
1471	21645
1485	21647
1455	21650
1438	21652
1443	21655
1458	21657
1484	21659
1512	21662
1551	21664
1567	21667
1553	21669
1528	21672
1524	21675
1532	21678
1541	21680
1557	21683
1567	21685
1549	21688
1506	21690
1457	21692
1418	21695
1411	21697
1425	21700
1455	21702
1480	21705
1505	21707
1498	21710
1481	21712
1486	21715
1513	21718
1516	21720
1491	21723
1468	21725
1468	21728
1510	21730
1548	21733
1528	21735
1477	21738
1407	21740
1391	21743
1426	21745
1450	21747
1488	21750
1515	21752
1541	21755
1570	21757
1586	21761
1588	21763
1578	21766
1567	21768
1570	21771
1587	21773
1596	21775
1583	21778
1572	21780
1544	21783
1527	21785
1526	21788
1523	21790
1516	21793
1524	21795
1527	21798
1537	21800
1558	21804
1571	21806
1573	21808
1545	21811
1496	21813
1470	21816
1484	21818
1534	21821
1620	21823
1622	21826
1599	21828
1565	21831
1545	21833
1541	21835
1525	21838
1497	21840
1482	21843
1499	21846
1534	21849
1564	21851
1604	21854
1630	21856
1605	21859
1506	21861
1417	21863
1316	21866
1299	21868
1367	21871
1461	21873
1537	21876
1527	21878
1476	21881
1437	21883
1442	21886
1433	21889
1422	21892
1411	21894
1449	21896
1525	21899
1557	21901
1577	21904
1572	21906
1569	21909
1561	21911
1528	21914
1517	21916
1499	21919
1498	21921
1518	21923
1537	21926
1540	21928
1536	21932
1512	21934
1493	21937
1498	21939
1514	21942
1538	21944
1537	21947
1521	21949
1492	21951
1471	21954
1484	21956
1470	21959
1428	21961
1379	21964
1365	21966
1407	21969
1440	21971
1463	21975
1473	21977
1469	21979
1474	21982
1473	21984
1473	21987
1488	21989
1513	21992
1534	21994
1545	21997
1556	21999
1540	22002
1495	22004
1454	22007
1441	22009
1460	22011
1494	22014
1477	22017
1424	22020
1387	22022
1388	22025
1443	22027
1509	22030
1550	22032
1556	22035
1533	22037
1485	22039
1458	22042
1425	22044
1411	22047
1431	22049
1471	22052
1512	22054
1533	22057
1543	22060
1534	22063
1505	22065
1464	22067
1439	22070
1419	22072
1425	22075
1442	22077
1468	22080
1498	22082
1533	22085
1555	22087
1555	22090
1545	22092
1521	22095
1500	22097
1505	22099
1496	22103
1484	22105
1483	22108
1473	22110
1444	22113
1438	22115
1458	22118
1497	22120
1545	22123
1578	22125
1590	22127
1563	22130
1469	22132
1394	22135
1362	22137
1413	22140
1491	22142
1582	22146
1620	22148
1603	22151
1549	22153
1516	22155
1524	22158
1533	22160
1535	22163
1516	22165
1469	22168
1439	22170
1435	22173
1463	22175
1523	22178
1565	22180
1583	22183
1593	22185
1586	22188
1577	22191
1585	22193
1555	22196
1499	22198
1434	22201
1365	22203
1355	22206
1405	22208
1484	22211
1566	22213
1596	22215
1593	22218
1566	22220
1553	22223
1562	22225
1578	22228
1600	22231
1604	22234
1593	22236
1558	22239
1512	22241
1485	22243
1468	22246
1458	22248
1473	22251
1504	22253
1551	22256
1582	22258
1573	22261
1541	22263
1480	22266
1444	22268
1419	22270
1429	22274
1468	22276
1523	22279
1585	22281
1604	22284
1551	22286
1497	22289
1430	22291
1416	22294
1417	22296
1429	22299
1456	22301
1484	22303
1534	22306
1566	22308
1558	22311
1522	22313
1490	22317
1475	22319
1484	22322
1492	22324
1486	22327
1480	22329
1495	22331
1534	22334
1560	22336
1552	22339
1530	22341
1510	22344
1490	22346
1492	22349
1491	22351
1507	22354
1532	22356
1549	22359
1553	22362
1536	22364
1519	22367
1515	22369
1508	22372
1505	22374
1502	22377
1497	22379
1441	22382
1394	22384
1355	22387
1353	22389
1401	22391
1469	22394
1516	22396
1505	22400
1478	22402
1450	22405
1418	22407
1416	22410
1425	22412
1439	22415
1460	22417
1465	22419
1480	22422
1489	22424
1489	22427
1474	22429
1463	22432
1477	22434
1484	22437
1501	22439
1486	22443
1474	22445
1477	22447
1463	22450
1457	22452
1445	22455
1454	22457
1511	22460
1571	22462
1600	22465
1608	22467
1602	22470
1582	22472
1490	22475
1379	22477
1299	22479
1280	22482
1346	22484
1442	22488
1513	22490
1556	22493
1578	22495
1583	22498
1585	22500
1564	22503
1549	22505
1537	22507
1531	22510
1526	22512
1517	22515
1429	22517
1364	22520
1387	22522
1477	22525
1571	22528
1605	22531
1594	22533
1579	22535
1561	22538
1554	22540
1523	22543
1468	22545
1378	22548
1310	22550
1314	22553
1390	22555
1487	22558
1540	22560
1525	22562
1497	22565
1480	22567
1486	22571
1510	22573
1522	22576
1530	22578
1553	22581
1573	22583
1561	22586
1487	22588
1413	22591
1383	22593
1421	22595
1494	22598
1544	22600
1562	22603
1542	22605
1492	22608
1439	22610
1408	22614
1429	22616
1466	22619
1485	22621
1482	22623
1481	22626
1481	22628
1484	22631
1445	22633
1405	22636
1381	22638
1390	22641
1436	22643
1488	22646
1516	22648
1510	22650
1502	22653
1478	22656
1468	22659
1481	22661
1500	22664
1494	22666
1492	22669
1489	22671
1500	22674
1505	22676
1471	22679
1438	22681
1425	22683
1440	22686
1493	22688
1539	22691
1574	22693
1589	22696
1574	22699
1554	22702
1533	22704
1512	22707
1488	22709
1484	22711
1499	22714
1530	22716
1561	22719
1563	22721
1520	22724
1473	22726
1452	22729
1452	22731
1450	22734
1430	22736
1380	22738
1367	22742
1420	22744
1488	22747
1583	22749
1645	22752
1641	22754
1589	22757
1520	22759
1466	22762
1445	22764
1451	22766
1478	22769
1498	22771
1471	22774
1391	22776
1329	22779
1317	22781
1366	22785
1422	22787
1481	22790
1476	22792
1468	22795
1450	22797
1458	22799
1510	22802
1561	22804
1590	22807
1577	22809
1546	22812
1523	22814
1504	22817
1447	22819
1401	22822
1385	22824
1395	22827
1442	22830
1472	22832
1472	22835
1477	22837
1499	22840
1531	22842
1559	22845
1564	22847
1531	22850
1490	22852
1445	22854
1416	22857
1428	22859
1460	22862
1495	22864
1510	22867
1515	22870
1490	22873
1477	22875
1479	22878
1503	22880
1554	22883
1582	22885
1559	22887
1488	22890
1414	22892
1376	22895
1385	22897
1410	22900
1392	22902
1381	22905
1399	22907
1435	22910
1479	22913
1501	22915
1498	22918
1501	22920
1500	22923
1501	22925
1502	22928
1499	22930
1493	22933
1490	22935
1454	22938
1426	22940
1416	22942
1432	22945
1447	22947
1459	22950
1459	22952
1463	22956
1480	22958
1478	22961
1456	22963
1398	22966
1367	22968
1395	22971
1461	22973
1532	22975
1560	22978
1549	22980
1521	22983
1511	22985
1528	22988
1538	22990
1539	22993
1521	22995
1478	22999
1450	23001
1444	23003
1470	23006
1517	23008
1520	23011
1513	23013
1519	23016
1538	23018
1560	23021
1558	23023
1516	23026
1465	23028
1428	23030
1441	23033
1489	23035
1539	23038
1542	23041
1510	23044
1466	23046
1426	23049
1405	23051
1406	23054
1407	23056
1426	23058
1465	23061
1526	23063
1585	23066
1613	23068
1624	23071
1590	23073
1530	23076
1474	23078
1442	23081
1443	23084
1464	23087
1472	23089
1460	23091
1437	23094
1436	23096
1470	23099
1521	23101
1567	23104
1575	23106
1557	23109
1510	23111
1468	23114
1463	23116
1486	23118
1514	23121
1528	23123
1476	23127
1429	23129
1403	23132
1406	23134
1447	23137
1483	23139
1521	23142
1562	23144
1567	23146
1555	23149
1526	23151
1503	23154
1498	23156
1514	23159
1531	23161
1532	23164
1523	23166
1506	23170
1499	23172
1496	23175
1480	23177
1445	23179
1403	23182
1382	23184
1405	23187
1436	23189
1483	23192
1520	23194
1499	23197
1473	23199
1441	23202
1439	23204
1448	23206
1450	23209
1461	23212
1463	23215
1477	23217
1493	23220
1506	23222
1512	23225
1493	23227
1482	23230
1479	23232
1481	23234
1480	23237
1490	23239
1488	23242
1509	23244
1528	23247
1533	23249
1491	23252
1443	23255
1420	23258
1457	23260
1526	23262
1578	23265
1584	23267
1577	23270
1554	23272
1494	23275
1452	23277
1450	23280
1468	23282
1512	23285
1553	23287
1560	23290
1574	23292
1585	23294
1584	23298
1583	23300
1578	23303
1545	23305
1477	23308
1434	23310
1429	23313
1484	23315
1569	23318
1585	23320
1517	23322
1396	23325
1311	23327
1303	23330
1363	23332
1452	23335
1519	23337
1542	23341
1541	23343
1546	23346
1548	23348
1536	23350
1520	23353
1502	23355
1478	23358
1459	23360
1448	23363
1467	23365
1506	23368
1528	23370
1525	23373
1503	23375
1504	23378
1527	23380
1563	23383
1600	23386
1582	23388
1541	23391
1482	23393
1423	23396
1415	23398
1442	23401
1487	23403
1524	23406
1513	23408
1485	23410
1469	23413
1495	23415
1550	23418
1574	23420
1562	23424
1512	23426
1468	23429
1446	23431
1434	23434
1428	23436
1439	23438
1465	23441
1498	23443
1525	23446
1518	23448
1496	23451
1490	23453
1498	23456
1521	23458
1523	23461
1504	23463
1481	23467
1473	23469
1489	23471
1509	23474
1505	23476
1469	23479
1420	23481
1392	23484
1403	23486
1445	23489
1463	23491
1434	23494
1364	23496
1311	23498
1337	23501
1399	23503
1464	23506
1508	23508
1543	23512
1557	23514
1549	23517
1527	23519
1494	23522
1454	23524
1423	23526
1412	23529
1440	23531
1489	23534
1526	23536
1529	23539
1531	23541
1508	23544
1468	23546
1432	23549
1411	23552
1405	23554
1429	23557
1471	23559
1500	23562
1513	23564
1533	23567
1548	23569
1545	23572
1525	23574
1473	23577
1422	23579
1396	23582
1404	23584
1434	23586
1456	23589
1426	23591
1383	23595
1375	23597
1439	23600
1526	23602
1579	23605
1571	23607
1543	23610
1547	23612
1549	23614
1532	23617
1509	23619
1493	23622
1491	23624
1480	23627
1460	23629
1433	23632
1396	23634
1374	23638
1384	23640
1404	23642
1436	23645
1459	23647
1481	23650
1510	23652
1537	23655
1555	23657
1558	23660
1548	23662
1543	23665
1503	23667
1444	23670
1420	23672
1401	23674
1422	23677
1453	23680
1472	23683
1470	23685
1437	23688
1412	23690
1421	23693
1461	23695
1499	23698
1510	23700
1508	23702
1497	23705
1501	23707
1513	23710
1515	23712
1508	23715
1499	23717
1500	23720
1487	23723
1440	23726
1376	23728
1337	23730
1363	23733
1423	23735
1485	23738
1537	23740
1554	23743
1552	23745
1537	23748
1542	23750
1570	23753
1608	23755
1617	23758
1595	23760
1532	23762
1486	23766
1476	23768
1491	23771
1526	23773
1579	23776
1597	23778
1587	23781
1568	23783
1531	23786
1488	23788
1459	23790
1440	23793
1417	23795
1389	23798
1352	23800
1341	23803
1383	23805
1460	23809
1516	23811
1542	23814
1543	23816
1519	23818
1501	23821
1482	23823
1463	23826
1458	23828
1423	23831
1396	23833
1406	23836
1461	23838
1516	23841
1563	23843
1603	23846
1617	23848
1603	23851
1577	23854
1556	23856
1555	23859
1564	23861
1545	23864
1504	23866
1481	23869
1491	23871
1507	23874
1487	23876
1453	23878
1434	23881
1472	23883
1544	23886
1581	23888
1596	23891
1591	23894
1570	23897
1545	23899
1533	23902
1533	23904
1537	23906
1538	23909
1540	23911
1536	23914
1520	23916
1496	23919
1473	23921
1460	23924
1459	23926
1475	23929
1493	23931
1486	23934
1457	23937
1411	23939
1389	23942
1406	23944
1440	23947
1450	23949
1441	23952
1440	23954
1470	23957
1528	23959
1545	23962
1533	23964
1523	23966
1515	23969
1532	23971
1545	23974
1531	23976
1469	23980
1432	23982
1432	23985
1492	23987
1574	23990
1610	23992
1596	23994
1574	23997
1552	23999
1487	24002
1424	24004
1400	24007
1437	24009
1501	24012
1530	24014
1513	24017
1487	24019
1436	24023
1391	24025
1378	24027
1404	24030
1468	24032
1518	24035
1564	24037
1591	24040
1600	24042
1573	24045
1536	24047
1503	24050
1498	24052
1520	24054
1531	24057
1523	24059
1494	24062
1451	24065
1412	24068
1401	24070
1432	24073
1468	24075
1494	24078
1500	24080
1487	24082
1470	24085
1462	24087
1491	24090
1547	24092
1568	24095
1549	24097
1496	24100
1422	24102
1412	24105
1425	24108
1459	24110
1510	24113
1530	24115
1530	24118
1517	24120
1499	24123
1499	24125
1512	24128
1534	24130
1588	24133
1615	24135
1599	24138
1586	24140
1557	24142
1515	24145
1501	24147
1503	24151
1514	24153
1517	24156
1484	24158
1440	24161
1426	24163
1444	24166
1466	24168
1472	24170
1466	24173
1452	24175
1467	24178
1499	24180
1514	24183
1507	24185
1494	24188
1491	24190
1520	24194
1561	24196
1578	24198
1565	24201
1524	24203
1489	24206
1478	24208
1497	24211
1499	24213
1473	24216
1436	24218
1419	24221
1424	24223
1437	24226
1432	24228
1419	24230
1426	24233
1468	24236
1509	24239
1524	24241
1504	24244
1464	24246
1439	24249
1441	24251
1456	24254
1491	24256
1511	24258
1509	24261
1487	24263
1439	24266
1386	24268
1379	24271
1434	24273
1529	24276
1601	24279
1651	24282
1634	24284
1579	24286
1530	24289
1515	24291
1521	24294
1526	24296
1547	24299
1541	24301
1531	24304
1512	24306
1502	24309
1499	24311
1514	24314
1534	24316
1562	24318
1617	24322
1650	24324
1634	24327
1587	24329
1529	24332
1488	24334
1453	24337
1432	24339
1433	24342
1432	24344
1431	24346
1438	24349
1425	24351
1375	24354
1346	24356
1338	24359
1366	24361
1449	24365
1532	24367
1615	24370
1634	24372
1602	24374
1544	24377
1511	24379
1501	24382
1533	24384
1584	24387
1598	24389
1567	24392
1517	24394
1446	24397
1403	24399
1413	24402
1438	24404
1442	24407
1452	24410
1473	24412
1508	24415
1537	24417
1514	24420
1449	24422
1400	24425
1391	24427
1448	24430
1526	24432
1558	24434
1539	24437
1530	24439
1544	24442
1531	24444
1505	24448
1470	24450
1435	24453
1424	24455
1436	24458
1457	24460
1476	24462
1494	24465
1513	24467
1508	24470
1468	24472
1420	24475
1385	24477
1346	24480
1345	24482
1360	24485
1403	24487
1473	24489
1544	24493
1597	24495
1618	24498
1598	24500
1548	24503
1512	24505
1485	24508
1479	24510
1495	24513
1485	24515
1437	24518
1342	24520
1284	24522
1285	24525
1355	24527
1450	24530
1480	24532
1482	24536
1458	24538
1428	24541
1425	24543
1439	24546
1461	24548
1496	24550
1523	24553
1541	24555
1553	24558
1539	24560
1475	24563
1413	24565
1388	24568
1423	24570
1450	24573
1452	24576
1447	24578
1465	24581
1513	24583
1544	24586
1533	24588
1507	24591
1498	24593
1489	24596
1489	24598
1496	24601
1503	24603
1523	24606
1501	24608
1431	24610
1373	24613
1366	24615
1452	24619
1552	24621
1608	24624
1615	24626
1570	24629
1514	24631
1457	24634
1413	24636
1420	24638
1445	24641
1502	24643
1563	24646
1586	24648
1579	24651
1561	24653
1519	24656
1500	24658
1492	24662
1517	24664
1533	24666
1492	24669
1399	24671
1333	24674
1357	24676
1430	24679
1518	24681
1637	24684
1717	24686
1716	24689
1664	24691
1531	24694
1386	24696
1298	24698
1295	24701
1396	24704
1535	24707
1634	24709
1695	24712
1702	24714
1682	24717
1644	24719
1622	24722
1586	24724
1542	24726
1472	24729
1411	24731
1409	24734
1461	24736
1530	24739
1587	24741
1608	24744
1575	24747
1540	24750
1511	24752
1489	24754
1495	24757
1505	24759
1512	24762
1511	24764
1499	24767
1492	24769
1504	24772
1544	24774
1574	24777
1576	24779
1556	24781
1521	24784
1499	24786
1475	24790
1421	24792
1307	24795
1248	24797
1297	24800
1380	24802
1505	24805
1596	24807
1615	24810
1592	24812
1573	24814
1555	24817
1548	24819
1535	24822
1506	24824
1479	24827
1466	24829
1458	24833
1470	24835
1437	24838
1390	24840
1365	24842
1368	24845
1430	24847
1512	24850
1570	24852
1594	24855
1596	24857
1585	24860
1566	24862
1550	24865
1542	24867
1552	24869
1563	24872
1570	24875
1561	24878
1538	24880
1493	24883
1441	24885
1393	24888
1380	24890
1411	24893
1469	24895
1508	24898
1484	24900
1428	24902
1340	24905
1291	24907
1289	24910
1317	24912
1366	24915
1402	24918
1423	24921
1450	24923
1503	24926
1560	24928
1593	24930
1582	24933
1543	24935
1503	24938
1468	24940
1450	24943
1448	24945
1448	24948
1447	24950
1453	24953
1447	24955
1433	24957
1396	24961
1353	24963
1309	24966
1318	24968
1390	24971
1500	24973
1564	24976
1561	24978
1506	24981
1430	24983
1398	24986
1422	24988
1489	24990
1553	24993
1564	24995
1531	24998
1471	25000
1448	25004
1447	25006
1495	25009
1569	25011
1599	25014
1594	25016
1573	25018
1564	25021
1570	25023
1552	25026
1506	25028
1455	25031
1435	25033
1447	25036
1449	25038
1448	25041
1429	25043
1412	25046
1440	25049
1488	25051
1520	25054
1535	25056
1530	25059
1525	25061
1535	25064
1548	25066
1547	25069
1555	25071
1541	25074
1516	25076
1482	25078
1467	25081
1491	25083
1519	25086
1553	25089
1570	25092
1586	25094
1591	25097
1554	25099
1513	25102
1481	25104
1470	25106
1477	25109
1491	25111
1522	25114
1540	25116
1545	25119
1514	25121
1463	25124
1407	25126
1387	25129
1416	25132
1458	25134
1471	25137
1466	25139
1479	25142
1445	25144
1407	25147
1393	25149
1427	25152
1507	25154
1585	25157
1611	25159
1610	25162
1598	25164
1562	25166
1551	25169
1555	25171
1576	25175
1603	25177
1619	25180
1582	25182
1425	25185
1303	25187
1266	25190
1350	25192
1493	25194
1587	25197
1611	25199
1600	25202
1601	25204
1615	25207
1623	25209
1615	25212
1600	25214
1546	25218
1480	25220
1406	25222
1366	25225
1400	25227
1456	25230
1492	25232
1512	25235
1524	25237
1567	25240
1626	25242
1655	25245
1661	25247
1639	25250
1599	25252
1553	25254
1524	25257
1495	25260
1463	25263
1398	25265
1352	25268
1339	25270
1380	25273
1451	25275
1524	25278
1550	25280
1528	25282
1499	25285
1493	25287
1503	25290
1530	25292
1552	25295
1543	25297
1525	25300
1513	25303
1518	25306
1523	25308
1507	25310
1489	25313
1482	25315
1500	25318
1533	25320
1552	25323
1539	25325
1496	25328
1492	25330
1525	25333
1564	25335
1589	25338
1555	25340
1448	25342
1343	25346
1308	25348
1383	25351
1500	25353
1572	25356
1584	25358
1546	25361
1499	25363
1476	25366
1476	25368
1474	25370
1482	25373
1496	25375
1514	25378
1553	25380
1570	25383
1535	25385
1489	25389
1459	25391
1458	25394
1499	25396
1546	25398
1573	25401
1563	25403
1514	25406
1466	25408
1414	25411
1398	25413
1406	25416
1430	25418
1475	25421
1519	25423
1551	25426
1535	25428
1457	25431
1374	25434
1337	25436
1375	25439
1469	25441
1567	25444
1606	25446
1570	25449
1504	25451
1472	25454
1499	25456
1564	25458
1606	25461
1595	25463
1532	25466
1482	25468
1452	25472
1459	25474
1469	25477
1458	25479
1441	25482
1442	25484
1468	25486
1492	25489
1517	25491
1515	25494
1485	25496
1455	25499
1434	25501
1420	25504
1423	25506
1434	25509
1452	25511
1481	25513
1493	25517
1486	25519
1449	25522
1407	25524
1382	25527
1394	25529
1445	25532
1492	25534
1505	25537
1522	25539
1558	25542
1596	25544
1614	25546
1589	25549
1521	25551
1442	25554
1420	25556
1448	25560
1502	25562
1526	25565
1491	25567
1418	25570
1373	25572
1420	25574
1504	25577
1553	25579
1555	25582
1529	25584
1500	25587
1488	25589
1493	25592
1518	25594
1535	25597
1539	25600
1527	25602
1518	25605
1519	25607
1533	25610
1527	25612
1508	25615
1495	25617
1476	25620
1475	25622
1457	25625
1425	25627
1424	25630
1455	25632
1496	25634
1551	25637
1609	25639
1638	25643
1640	25645
1625	25648
1561	25650
1479	25653
1425	25655
1397	25658
1415	25660
1449	25662
1492	25665
1541	25667
1567	25670
1569	25672
1545	25675
1503	25677
1466	25680
1441	25682
1448	25686
1478	25688
1518	25690
1540	25693
1528	25695
1476	25698
1420	25700
1382	25703
1372	25705
1392	25708
1405	25710
1403	25713
1393	25715
1419	25717
1483	25720
1552	25722
1594	25725
1594	25728
1587	25731
1564	25733
1532	25736
1521	25738
1507	25741
1496	25743
1488	25746
1468	25748
1440	25750
1429	25753
1430	25755
1446	25758
1490	25760
1528	25763
1521	25765
1502	25768
1474	25771
1481	25774
1511	25776
1506	25778
1475	25781
1452	25783
1470	25786
1526	25788
1572	25791
1581	25793
1557	25796
1517	25798
1488	25801
1471	25803
1461	25805
1455	25808
1440	25810
1436	25814
1432	25816
1437	25819
1450	25821
1457	25824
1457	25826
1451	25829
1445	25831
1445	25834
1448	25836
1483	25838
1506	25841
1469	25843
1412	25846
1405	25848
1431	25851
1493	25853
1562	25857
1578	25859
1566	25862
1539	25864
1513	25866
1507	25869
1506	25871
