1498	2
1498	5
1498	7
1498	9
1498	11
1498	14
1497	16
1496	18
1493	21
1491	23
1490	25
1490	27
1493	30
1495	32
1497	34
1498	37
1498	39
1499	41
1501	45
1500	47
1498	49
1494	51
1492	54
1493	56
1493	58
1493	61
1493	63
1490	65
1488	68
1488	70
1490	72
1493	75
1495	77
1495	79
1495	81
1495	84
1495	87
1497	89
1499	92
1499	94
1498	96
1496	99
1495	101
1494	103
1494	106
1492	108
1490	110
1489	113
1490	115
1491	117
1492	120
1491	122
1490	124
1489	128
1489	130
1491	132
1492	135
1492	137
1491	140
1488	142
1487	144
1488	147
1488	149
1489	151
1488	154
1487	156
1488	158
1490	161
1493	163
1494	165
1492	168
1488	171
1488	173
1489	176
1490	178
1489	181
1490	183
1491	185
1491	188
1488	190
1487	192
1489	195
1489	197
1491	199
1491	202
1490	204
1489	206
1488	209
1488	211
1489	215
1489	217
1490	219
1488	222
1487	224
1487	226
1488	229
1492	231
1495	233
1494	236
1492	238
1489	240
1487	243
1488	245
1489	247
1491	250
1492	252
1489	256
1487	258
1486	260
1486	263
1489	265
1492	267
1492	270
1491	272
1489	274
1488	277
1487	279
1486	281
1486	284
1488	286
1489	288
1490	291
1490	293
1490	296
1489	299
1487	301
1486	304
1486	306
1485	308
1484	311
1484	313
1483	315
1482	318
1483	320
1484	322
1484	325
1484	327
1485	329
1490	332
1495	334
1497	337
1496	339
1494	342
1495	345
1497	347
1497	349
1494	352
1492	354
1491	356
1490	359
1489	361
1489	363
1489	366
1488	368
1488	371
1489	373
1490	375
1491	378
1492	380
1491	382
1488	386
1484	388
1481	390
1481	393
1483	395
1487	397
1489	400
1490	402
1491	404
1492	407
1491	409
1490	412
1490	414
1490	416
1490	419
1490	421
1492	423
1494	427
1495	429
1496	431
1493	434
1490	436
1489	438
1489	441
1488	443
1488	445
1485	448
1484	450
1483	453
1484	455
1484	457
1482	460
1482	462
1485	464
1491	467
1495	470
1495	472
1493	475
1491	477
1490	479
1490	482
1490	484
1490	487
1490	489
1493	491
1495	494
1496	496
1498	498
1500	501
1498	503
1493	505
1492	508
1494	510
1495	513
1495	516
1494	518
1492	520
1491	523
1490	525
1489	528
1485	530
1481	532
1480	535
1481	537
1484	539
1489	542
1492	544
1492	546
1492	549
1492	551
1491	553
1490	557
1489	559
1490	562
1493	564
1495	566
1496	569
1494	571
1492	573
1491	576
1492	578
1494	580
1494	583
1493	585
1491	587
1488	590
1486	592
1484	594
1485	598
1486	600
1485	603
1485	605
1486	607
1486	610
1487	612
1488	614
1490	617
1491	619
1490	621
1489	624
1487	626
1486	628
1485	631
1485	633
1485	635
1485	638
1489	641
1491	644
1490	646
1490	648
1491	651
1493	653
1496	655
1496	658
1497	660
1496	662
1495	665
1493	667
1493	669
1494	672
1495	674
1497	677
1497	679
1494	681
1492	685
1488	687
1488	689
1488	692
1489	694
1493	696
1495	699
1497	701
1497	703
1496	706
1495	708
1495	710
1494	713
1495	715
1495	718
1495	720
1492	722
1489	726
1487	728
1486	730
1488	733
1490	735
1489	737
1489	740
1489	742
1491	744
1495	747
1498	749
1500	751
1499	754
1498	756
1497	759
1495	761
1493	763
1491	766
1490	769
1490	771
1490	774
1490	776
1493	778
1497	781
1501	783
1501	785
1502	788
1501	790
1497	793
1494	795
1492	797
1491	800
1493	802
1494	804
1494	807
1494	809
1494	812
1494	815
1491	817
1489	819
1487	822
1485	824
1483	826
1483	829
1485	831
1487	834
1489	836
1491	838
1494	841
1497	843
1499	845
1500	848
1501	850
1500	852
1498	856
1498	858
1495	860
1495	863
1495	865
1493	867
1492	870
1489	872
1489	875
1489	877
1491	879
1493	882
1492	884
1491	886
1492	889
1494	891
1496	893
1495	897
1492	899
1490	901
1489	904
1489	906
1489	909
1489	911
1489	913
1489	916
1492	918
1496	920
1498	923
1498	925
1498	927
1497	930
1497	932
1497	934
1496	937
1494	940
1493	942
1495	945
1497	947
1498	950
1498	952
1497	954
1495	957
1495	959
1496	961
1497	964
1498	966
1496	968
1494	971
1491	973
1490	975
1490	978
1490	980
1491	983
1491	986
1494	988
1494	991
1491	993
1487	995
1484	998
1487	1000
1492	1002
1497	1005
1497	1007
1494	1010
1492	1012
1492	1014
1492	1017
1492	1019
1493	1022
1495	1025
1496	1027
1496	1030
1494	1032
1492	1035
1491	1037
1492	1039
1492	1042
1491	1044
1489	1047
1488	1049
1487	1051
1489	1054
1492	1056
1495	1059
1496	1061
1495	1063
1489	1067
1487	1069
1487	1072
1491	1074
1493	1077
1492	1079
1490	1081
1490	1084
1491	1086
1492	1089
1493	1091
1492	1093
1492	1096
1491	1098
1490	1101
1490	1103
1491	1105
1492	1108
1492	1111
1492	1114
1492	1116
1490	1118
1487	1121
1484	1123
1481	1126
1481	1128
1484	1130
1488	1133
1491	1135
1492	1138
1493	1140
1494	1142
1494	1145
1493	1147
1492	1150
1492	1153
1492	1156
1492	1158
1491	1160
1491	1163
1494	1165
1499	1168
1501	1170
1500	1172
1498	1175
1494	1177
1489	1180
1488	1182
1486	1184
1487	1187
1488	1189
1487	1192
1483	1195
1481	1197
1480	1200
1482	1202
1485	1205
1487	1207
1488	1209
1489	1212
1488	1214
1488	1217
1489	1219
1489	1221
1489	1224
1490	1226
1490	1229
1490	1231
1491	1233
1491	1236
1493	1239
1495	1242
1496	1244
1496	1247
1496	1249
1497	1251
1499	1254
1499	1256
1498	1259
1496	1261
1494	1263
1494	1266
1493	1268
1491	1271
1491	1273
1493	1275
1495	1278
1492	1281
1489	1284
1484	1286
1482	1288
1485	1291
1489	1293
1491	1296
1490	1298
1493	1300
1491	1303
1490	1305
1488	1308
1486	1310
1489	1312
1495	1315
1497	1317
1497	1320
1497	1323
1496	1325
1496	1328
1495	1330
1495	1333
1494	1335
1494	1337
1493	1340
1492	1342
1492	1345
1492	1347
1491	1350
1490	1352
1490	1354
1490	1357
1491	1359
1491	1362
1490	1364
1489	1367
1490	1370
1489	1372
1488	1375
1488	1377
1490	1379
1493	1382
1494	1384
1494	1387
1492	1389
1491	1391
1491	1394
1492	1396
1493	1399
1493	1401
1493	1403
1489	1406
1485	1409
1480	1412
1476	1414
1477	1416
1481	1419
1485	1421
1490	1424
1494	1426
1501	1428
1505	1431
1501	1433
1496	1436
1491	1438
1491	1440
1493	1443
1495	1445
1497	1448
1497	1451
1495	1454
1492	1456
1490	1458
1489	1461
1489	1463
1489	1466
1490	1468
1492	1470
1492	1473
1492	1475
1493	1478
1494	1480
1491	1482
1488	1485
1486	1487
1488	1490
1491	1492
1495	1495
1492	1498
1489	1500
1488	1503
1489	1505
1492	1507
1496	1510
1497	1512
1494	1515
1490	1517
1485	1519
1482	1522
1483	1524
1484	1527
1487	1529
1489	1531
1490	1534
1491	1537
1490	1540
1489	1542
1489	1545
1490	1547
1492	1549
1493	1552
1492	1554
1491	1557
1494	1559
1496	1561
1497	1564
1497	1566
1494	1569
1493	1571
1493	1573
1493	1576
1493	1579
1494	1582
1490	1584
1490	1586
1493	1589
1499	1591
1503	1594
1504	1596
1500	1598
1498	1601
1497	1603
1497	1606
1496	1608
1493	1610
1490	1613
1487	1615
1485	1618
1485	1620
1487	1623
1491	1626
1495	1628
1497	1631
1498	1633
1495	1635
1493	1638
1494	1640
1497	1643
1496	1645
1491	1648
1488	1650
1489	1652
1493	1655
1494	1657
1491	1660
1489	1662
1488	1665
1490	1668
1491	1670
1490	1673
1490	1675
1494	1677
1498	1680
1501	1682
1498	1685
1495	1687
1494	1689
1494	1692
1494	1694
1493	1697
1490	1699
1488	1701
1492	1704
1496	1707
1498	1710
1500	1712
1501	1714
1501	1717
1498	1719
1494	1722
1492	1724
1495	1726
1499	1729
1501	1731
1501	1734
1499	1736
1495	1738
1492	1741
1490	1743
1489	1746
1491	1748
1492	1752
1492	1754
1490	1756
1490	1759
1486	1761
1487	1764
1488	1766
1490	1768
1495	1771
1501	1773
1506	1776
1507	1778
1505	1780
1499	1783
1495	1785
1492	1788
1491	1790
1491	1793
1492	1796
1494	1798
1495	1801
1495	1803
1494	1805
1493	1808
1494	1810
1493	1813
1492	1815
1491	1817
1490	1820
1488	1822
1487	1825
1488	1827
1489	1829
1492	1832
1492	1835
1491	1838
1491	1840
1494	1842
1494	1845
1491	1847
1487	1850
1482	1852
1481	1855
1483	1857
1487	1859
1493	1862
1496	1864
1499	1867
1504	1869
1504	1871
1499	1874
1497	1876
1498	1880
1500	1882
1499	1884
1497	1887
1495	1889
1494	1892
1492	1894
1492	1896
1492	1899
1492	1901
1492	1904
1490	1906
1490	1908
1489	1911
1488	1913
1488	1916
1488	1918
1488	1921
1487	1924
1486	1926
1488	1929
1493	1931
1496	1933
1499	1936
1498	1938
1495	1941
1492	1943
1489	1946
1487	1948
1487	1950
1487	1953
1483	1955
1480	1958
1479	1960
1483	1963
1491	1966
1497	1968
1502	1971
1503	1973
1501	1975
1498	1978
1496	1980
1494	1983
1493	1985
1493	1987
1493	1990
1494	1992
1493	1995
1493	1997
1494	1999
1496	2002
1497	2004
1495	2008
1491	2010
1489	2012
1490	2015
1492	2017
1493	2020
1493	2022
1492	2024
1491	2027
1489	2029
1488	2032
1489	2034
1491	2036
1492	2039
1491	2041
1490	2044
1488	2046
1490	2050
1490	2052
1490	2054
1492	2057
1492	2059
1491	2062
1491	2064
1493	2066
1496	2069
1498	2071
1497	2074
1495	2076
1492	2078
1491	2081
1489	2083
1488	2086
1487	2088
1487	2091
1489	2094
1492	2096
1494	2099
1492	2101
1490	2103
1488	2106
1490	2108
1492	2111
1493	2113
1494	2115
1496	2118
1496	2120
1495	2123
1493	2125
1492	2127
1492	2130
1492	2132
1492	2136
1492	2138
1490	2141
1490	2143
1493	2145
1496	2148
1494	2150
1495	2153
1494	2155
1493	2157
1493	2160
1493	2162
1493	2165
1492	2167
1492	2169
1492	2172
1493	2174
1495	2178
1497	2180
1495	2182
1492	2185
1490	2187
1490	2190
1492	2192
1492	2194
1491	2197
1490	2199
1491	2202
1491	2204
1494	2206
1495	2209
1497	2211
1498	2214
1497	2216
1496	2220
1495	2222
1494	2224
1492	2227
1488	2229
1486	2232
1487	2234
1488	2236
1491	2239
1495	2241
1495	2244
1494	2246
1493	2248
1493	2251
1493	2253
1493	2256
1492	2258
1491	2260
1492	2264
1493	2266
1492	2269
1491	2271
1490	2273
1489	2276
1489	2278
1489	2281
1489	2283
1491	2285
1492	2288
1493	2290
1492	2293
1491	2295
1490	2297
1489	2300
1488	2302
1487	2306
1486	2308
1483	2311
1480	2313
1482	2315
1483	2318
1482	2320
1483	2323
1483	2325
1485	2327
1487	2330
1485	2332
1482	2335
1483	2337
1486	2339
1488	2342
1490	2344
1493	2348
1493	2350
1490	2352
1488	2355
1487	2357
1487	2360
1487	2362
1488	2364
1489	2367
1490	2369
1491	2372
1490	2374
1488	2376
1484	2379
1480	2381
1481	2384
1484	2386
1486	2390
1485	2392
1485	2394
1485	2397
1487	2399
1488	2402
1490	2404
1490	2406
1488	2409
1487	2411
1486	2414
1485	2416
1484	2418
1483	2421
1484	2423
1487	2426
1491	2428
1493	2430
1493	2434
1492	2436
1491	2439
1489	2441
1489	2443
1489	2446
1491	2448
1491	2451
1490	2453
1489	2455
1488	2458
1488	2460
1488	2463
1487	2465
1485	2467
1487	2470
1489	2472
1489	2476
1488	2478
1487	2481
1487	2483
1487	2485
1487	2488
1487	2490
1486	2493
1485	2495
1482	2497
1480	2500
1480	2502
1482	2505
1484	2507
1485	2509
1486	2512
1486	2514
1486	2518
1484	2520
1483	2522
1483	2525
1484	2527
1487	2530
1492	2532
1492	2534
1491	2537
1488	2539
1485	2542
1484	2544
1484	2546
1485	2549
1486	2551
1488	2554
1488	2556
1487	2558
1487	2562
1486	2564
1487	2567
1487	2569
1487	2572
1485	2574
1484	2576
1483	2579
1482	2581
1482	2584
1484	2586
1485	2588
1486	2591
1488	2593
1489	2596
1489	2598
1490	2600
1493	2604
1495	2606
1494	2609
1491	2611
1490	2613
1491	2616
1492	2618
1492	2621
1490	2623
1489	2625
1489	2628
1490	2630
1488	2633
1485	2635
1483	2637
1484	2640
1486	2642
1488	2646
1488	2648
1487	2650
1488	2653
1489	2655
1490	2658
1490	2660
1491	2662
1491	2665
1490	2667
1488	2670
1488	2672
1489	2675
1491	2677
1491	2679
1490	2682
1485	2684
1483	2688
1483	2690
1484	2692
1486	2695
1487	2697
1488	2700
1487	2702
1487	2704
1486	2707
1486	2709
1485	2712
1485	2714
1486	2716
1487	2719
1487	2721
1486	2724
1485	2726
1484	2728
1483	2732
1482	2734
1482	2737
1482	2739
1482	2741
1483	2744
1484	2746
1484	2749
1485	2751
1484	2753
1482	2756
1484	2758
1487	2761
1491	2763
1494	2766
1497	2768
1500	2770
1501	2774
1499	2776
1496	2779
1493	2781
1492	2783
1491	2786
1490	2788
1487	2791
1486	2793
1486	2795
1484	2798
1482	2800
1481	2803
1483	2805
1484	2807
1485	2810
1484	2812
1484	2816
1485	2818
1486	2820
1486	2823
1486	2825
1487	2828
1488	2830
1489	2832
1490	2835
1489	2837
1487	2840
1486	2842
1486	2844
1485	2847
1486	2849
1491	2852
1494	2854
1494	2856
1493	2860
1491	2862
1493	2865
1494	2867
1495	2870
1494	2872
1492	2874
1490	2877
1490	2879
1491	2882
1493	2884
1494	2886
1496	2889
1497	2891
1494	2894
1491	2896
1490	2898
1490	2902
1491	2904
1491	2907
1490	2909
1489	2911
1489	2914
1489	2916
1490	2919
1492	2921
1490	2923
1487	2926
1486	2928
1486	2931
1489	2933
1492	2935
1493	2938
1493	2940
1494	2944
1493	2946
1493	2948
1493	2951
1493	2953
1494	2956
1495	2958
1496	2961
1497	2963
1499	2965
1500	2968
1500	2970
1498	2973
1496	2975
1495	2977
1494	2980
1494	2982
1496	2985
1498	2988
1498	2990
1496	2993
1492	2995
1489	2998
1489	3000
1490	3002
1493	3005
1496	3007
1496	3010
1497	3012
1498	3014
1498	3017
1498	3019
1499	3022
1499	3024
1498	3026
1497	3030
1497	3032
1496	3035
1496	3037
1495	3040
1492	3042
1491	3044
1490	3047
1490	3049
1492	3052
1493	3054
1494	3056
1496	3059
1494	3061
1491	3064
1488	3066
1487	3068
1488	3072
1489	3074
1490	3077
1490	3079
1490	3081
1491	3084
1492	3086
1494	3089
1495	3091
1494	3093
1493	3096
1492	3098
1492	3101
1493	3103
1494	3106
1494	3108
1494	3110
1494	3113
1498	3116
1501	3119
1502	3121
1500	3123
1496	3126
1493	3128
1490	3131
1490	3133
1491	3135
1493	3138
1494	3140
1494	3143
1494	3145
1492	3147
1491	3150
1489	3152
1489	3155
1489	3158
1485	3160
1482	3163
1482	3165
1484	3168
1488	3170
1491	3173
1492	3175
1492	3177
1491	3180
1490	3182
1490	3185
1490	3187
1491	3189
1492	3192
1493	3194
1494	3197
1495	3200
1497	3202
1498	3205
1498	3207
1497	3210
1494	3212
1493	3214
1493	3217
1495	3219
1497	3222
1497	3224
1497	3226
1496	3229
1497	3231
1495	3234
1494	3236
1494	3238
1495	3241
1496	3244
1495	3247
1492	3249
1489	3251
1489	3254
1491	3256
1496	3259
1497	3261
1498	3264
1498	3266
1497	3268
1497	3271
1498	3273
1498	3276
1498	3278
1497	3280
1495	3283
1495	3286
1495	3289
1494	3291
1492	3293
1491	3296
1491	3298
1493	3301
1494	3303
1494	3305
1494	3308
1495	3310
1495	3313
1495	3315
1494	3317
1492	3320
1491	3322
1491	3325
1492	3328
1493	3330
1495	3333
1495	3335
1495	3338
1495	3340
1495	3342
1495	3345
1495	3347
1495	3350
1495	3352
1494	3355
1493	3357
1494	3359
1495	3362
1496	3364
1499	3367
1499	3369
1500	3372
1501	3375
1502	3377
1504	3380
1504	3382
1502	3384
1499	3387
1498	3389
1497	3392
1495	3394
1494	3396
1495	3399
1497	3401
1497	3404
1496	3406
1494	3408
1493	3411
1492	3414
1490	3417
1488	3419
1488	3421
1490	3424
1493	3426
1495	3429
1497	3431
1499	3433
1500	3436
1502	3438
1502	3441
1500	3443
1496	3446
1494	3448
1493	3450
1494	3453
1496	3456
1496	3459
1494	3461
1492	3463
1492	3466
1494	3468
1496	3471
1496	3473
1496	3475
1495	3478
1495	3480
1495	3483
1494	3485
1494	3487
1493	3490
1492	3492
1492	3495
1492	3497
1492	3500
1492	3503
1491	3505
1489	3508
1488	3510
1490	3512
1493	3515
1494	3517
1495	3520
1496	3522
1497	3525
1498	3527
1496	3529
1494	3532
1492	3534
1491	3537
1491	3539
1492	3542
1492	3545
1492	3547
1492	3550
1492	3552
1492	3554
1490	3557
1488	3559
1487	3562
1486	3564
1487	3566
1488	3569
1491	3571
1492	3574
1493	3576
1493	3578
1493	3581
1494	3584
1493	3587
1491	3589
1488	3592
1486	3594
1485	3596
1484	3599
1483	3601
1484	3604
1484	3606
1485	3608
1488	3611
1491	3613
1495	3616
1496	3618
1495	3620
1492	3623
1490	3625
1489	3629
1489	3631
1491	3633
1491	3636
1493	3638
1494	3641
1495	3643
1495	3645
1493	3648
1491	3650
1490	3653
1489	3655
1487	3657
1486	3660
1487	3662
1488	3665
1488	3667
1487	3670
1484	3673
1482	3675
1483	3678
1486	3680
1490	3683
1492	3685
1493	3687
1493	3690
1492	3692
1491	3695
1489	3697
1489	3699
1490	3702
1490	3704
1491	3707
1492	3709
1492	3712
1492	3715
1491	3717
1489	3720
1489	3722
1490	3724
1490	3727
1489	3729
1487	3732
1486	3734
1486	3736
1487	3739
1489	3741
1492	3744
1492	3746
1492	3748
1493	3751
1494	3753
1494	3757
1495	3759
1494	3762
1494	3764
1495	3766
1496	3769
1498	3771
1499	3774
1499	3776
1498	3778
1498	3781
1497	3783
1497	3786
1497	3788
1497	3790
1497	3793
1497	3795
1498	3799
1499	3801
1499	3803
1500	3806
1503	3808
1506	3811
1508	3813
1507	3815
1505	3818
1501	3820
1498	3823
1497	3825
1497	3828
1500	3830
1502	3832
1502	3835
1502	3837
1502	3841
1502	3843
1502	3845
1501	3848
1501	3850
1500	3853
1500	3855
1500	3857
1500	3860
1500	3862
1502	3865
1507	3867
1511	3869
1512	3872
1511	3874
1510	3877
1509	3879
1506	3881
1502	3885
1499	3887
1497	3890
1495	3892
1495	3894
1497	3897
1500	3899
1501	3902
1501	3904
1499	3907
1498	3909
1498	3911
1498	3914
1496	3916
1495	3919
1495	3921
1494	3923
1494	3927
1495	3929
1495	3932
1496	3934
1497	3936
1498	3939
1498	3941
1496	3944
1496	3946
1495	3948
1494	3951
1493	3953
1492	3956
1491	3958
1491	3960
1492	3963
1494	3965
1495	3969
1495	3971
1495	3973
1493	3976
1490	3978
1488	3981
1487	3983
1488	3986
1491	3988
1492	3990
1492	3993
1492	3995
1490	3998
1488	4000
1487	4002
1487	4005
1490	4007
1491	4011
1491	4013
1492	4015
1492	4018
1492	4020
1494	4023
1495	4025
1495	4027
1494	4030
1494	4032
1492	4035
1491	4037
1489	4039
1487	4042
1485	4044
1484	4047
1484	4049
1485	4051
1486	4055
1486	4057
1486	4060
1486	4062
1488	4064
1493	4067
1498	4069
1500	4072
1496	4074
1493	4077
1491	4079
1490	4081
1490	4084
1491	4086
1490	4089
1489	4091
1488	4093
1487	4097
1486	4099
1486	4102
1486	4104
1482	4106
1479	4109
1478	4111
1479	4114
1482	4116
1485	4118
1486	4121
1486	4123
1488	4126
1488	4128
1490	4130
1492	4133
1493	4135
1493	4139
1492	4141
1490	4143
1490	4146
1490	4148
1489	4151
1486	4153
1484	4155
1485	4158
1486	4160
1488	4163
1487	4165
1486	4167
1484	4170
1484	4172
1485	4175
1486	4177
1486	4180
1486	4183
1485	4185
1484	4188
1483	4190
1483	4193
1483	4195
1482	4197
1481	4200
1482	4202
1482	4205
1484	4207
1486	4209
1487	4212
1485	4214
1481	4217
1479	4219
1480	4221
1482	4225
1482	4227
1482	4230
1480	4232
1478	4234
1478	4237
1480	4239
1484	4242
1485	4244
1482	4246
1480	4249
1480	4251
1480	4254
1480	4256
1480	4258
1480	4261
1482	4263
1484	4267
1484	4269
1483	4271
1484	4274
1484	4276
1485	4279
1487	4281
1488	4284
1487	4286
1488	4288
1490	4291
1492	4293
1492	4296
1489	4298
1489	4300
1489	4303
1489	4305
1488	4308
1486	4311
1485	4313
1484	4316
1484	4318
1485	4321
1485	4323
1486	4325
1488	4328
1487	4330
1485	4333
1484	4335
1483	4337
1483	4340
1483	4342
1485	4345
1487	4347
1489	4349
1490	4353
1490	4355
1487	4358
1483	4360
1478	4363
1476	4365
1480	4367
1483	4370
1488	4372
1492	4375
1493	4377
1492	4379
1491	4382
1491	4384
1492	4387
1494	4389
1495	4391
1493	4395
1490	4397
1488	4400
1487	4402
1487	4404
1486	4407
1485	4409
1484	4412
1483	4414
1485	4416
1487	4419
1488	4421
1489	4424
1490	4426
1491	4428
1492	4431
1491	4433
1487	4436
1485	4439
1484	4442
1487	4444
1490	4446
1492	4449
1492	4451
1491	4454
1489	4456
1485	4458
1476	4461
1472	4463
1473	4466
1480	4468
1488	4470
1491	4473
1494	4475
1497	4478
1500	4481
1502	4483
1503	4486
1501	4488
1499	4491
1496	4493
1494	4495
1494	4498
1493	4500
1492	4503
1493	4505
1494	4507
1493	4510
1489	4512
1484	4515
1480	4517
1481	4520
1484	4523
1485	4525
1487	4528
1487	4530
1489	4533
1493	4535
1495	4537
1495	4540
1494	4542
1493	4545
1493	4547
1495	4549
1496	4552
1494	4554
1493	4557
1490	4559
1489	4561
1489	4564
1490	4567
1491	4570
1492	4572
1492	4574
1493	4577
1494	4579
1494	4582
1493	4584
1490	4586
1487	4589
1488	4591
1485	4594
1484	4596
1484	4599
1485	4601
1487	4603
1490	4606
1492	4609
1491	4612
1492	4614
1492	4616
1490	4619
1490	4621
1490	4624
1490	4626
1490	4628
1488	4631
1487	4633
1486	4636
1489	4638
1492	4640
1495	4643
1496	4645
1495	4648
1493	4651
1493	4653
1494	4656
1495	4658
1495	4661
1495	4663
1494	4666
1493	4668
1492	4670
1492	4673
1493	4675
1493	4678
1491	4680
1491	4682
1491	4685
1491	4687
1491	4690
1491	4692
1492	4695
1493	4698
1494	4700
1492	4703
1489	4705
1489	4707
1491	4710
1492	4712
1492	4715
1493	4717
1495	4719
1499	4722
1502	4724
1504	4727
1502	4729
1499	4732
1497	4734
1494	4737
1492	4740
1490	4742
1489	4745
1488	4747
1487	4749
1486	4752
1486	4754
1490	4757
1492	4759
1490	4761
1485	4764
1485	4766
1486	4769
1490	4771
1492	4773
1492	4776
1492	4779
1492	4782
1493	4784
1493	4786
1495	4789
1497	4791
1497	4794
1498	4796
1497	4799
1497	4801
1495	4803
1493	4806
1491	4808
1490	4811
1491	4813
1490	4815
1490	4818
1490	4820
1490	4824
1491	4826
1491	4828
1490	4831
1490	4833
1491	4836
1492	4838
1491	4840
1489	4843
1487	4845
1487	4848
1488	4850
1489	4852
1491	4855
1491	4857
1491	4860
1491	4862
1492	4865
1494	4868
1495	4870
1494	4873
1493	4875
1494	4877
1494	4880
1494	4882
1492	4885
1490	4887
1490	4890
1491	4892
1492	4894
1493	4897
1492	4899
1490	4902
1489	4904
1489	4907
1489	4910
1489	4912
1487	4915
1487	4917
1489	4919
1490	4922
1491	4924
1493	4927
1494	4929
1495	4931
1494	4934
1493	4936
1491	4939
1491	4941
1491	4943
1491	4946
1491	4948
1491	4952
1492	4954
1492	4956
1488	4959
1485	4961
1484	4964
1487	4966
1491	4969
1493	4971
1493	4973
1492	4976
1490	4978
1488	4981
1485	4983
1484	4985
1487	4988
1490	4990
1493	4994
1493	4996
1493	4998
1494	5001
1494	5003
1494	5006
1495	5008
1494	5010
1491	5013
1486	5015
1481	5018
1479	5020
1482	5022
1485	5025
1486	5027
1485	5030
1486	5032
1487	5036
1490	5038
1490	5040
1490	5043
1489	5045
1488	5048
1488	5050
1488	5052
1489	5055
1489	5057
1488	5060
1488	5062
1489	5064
1491	5067
1493	5069
1494	5072
1494	5074
1497	5076
1495	5080
1491	5082
1487	5085
1485	5087
1485	5089
1487	5092
1487	5094
1485	5097
1485	5099
1484	5101
1483	5104
1482	5106
1482	5109
1484	5111
1487	5114
1490	5116
1492	5118
1492	5122
1490	5124
1488	5127
1488	5129
1490	5131
1491	5134
1486	5136
1481	5139
1479	5141
1480	5143
1484	5146
1490	5148
1492	5151
1490	5153
1487	5155
1485	5158
1485	5160
1487	5164
1490	5166
1493	5168
1493	5171
1493	5173
1494	5176
1494	5178
1493	5181
1492	5183
1493	5185
1495	5188
1497	5190
1498	5193
1497	5195
1496	5197
1494	5200
1492	5202
1491	5206
1492	5208
1493	5210
1493	5213
1490	5215
1486	5218
1482	5220
1484	5222
1485	5225
1486	5227
1488	5230
1490	5232
1492	5234
1494	5237
1496	5239
1497	5242
1499	5244
1501	5246
1500	5250
1500	5252
1500	5255
1500	5257
1499	5259
1498	5262
1497	5264
1500	5267
1503	5269
1501	5272
1497	5274
1492	5276
1491	5279
1491	5281
1493	5284
1492	5286
1490	5288
1488	5292
1487	5294
1487	5297
1486	5299
1486	5301
1487	5304
1489	5306
1489	5309
1489	5311
1488	5313
1488	5316
1490	5318
1491	5321
1490	5323
1485	5325
1482	5328
1482	5330
1484	5334
1486	5336
1487	5338
1488	5341
1488	5343
1487	5346
1486	5348
1483	5351
1482	5353
1481	5355
1481	5358
1481	5360
1483	5363
1484	5365
1485	5367
1484	5370
1485	5372
1486	5376
1487	5378
1487	5380
1487	5383
1487	5385
1486	5388
1484	5390
1481	5392
1479	5395
1480	5397
1481	5400
1484	5402
1485	5404
1485	5407
1486	5409
1485	5412
1483	5414
1482	5416
1480	5420
1479	5422
1476	5425
1474	5427
1475	5429
1478	5432
1480	5434
1482	5437
1484	5439
1485	5442
1486	5444
1486	5446
1484	5449
1482	5451
1482	5454
1483	5456
1485	5458
1487	5462
1487	5464
1487	5467
1488	5469
1488	5471
1488	5474
1488	5476
1486	5479
1485	5481
1484	5483
1484	5486
1483	5488
1482	5491
1480	5493
1477	5495
1474	5498
1472	5500
1473	5504
1476	5506
1477	5508
1474	5511
1472	5513
1476	5516
1482	5518
1486	5521
1487	5523
1486	5525
1485	5528
1485	5530
1484	5533
1483	5535
1485	5537
1492	5540
1498	5542
1500	5545
1495	5548
1487	5550
1482	5553
1479	5555
1477	5558
1474	5560
1472	5562
1471	5565
1474	5567
1478	5570
1479	5572
1473	5574
1463	5577
1454	5579
1457	5582
1466	5584
1478	5587
1483	5590
1488	5592
1494	5595
1501	5597
1497	5600
1501	5602
1491	5604
1484	5607
1473	5609
1470	5612
1482	5614
1510	5616
1528	5619
1507	5621
1477	5624
1453	5626
1446	5628
1469	5632
1497	5634
1516	5637
1527	5639
1535	5641
1528	5644
1523	5646
1529	5649
1545	5651
1549	5653
1557	5656
1567	5658
1584	5661
1587	5663
1575	5666
1567	5668
1562	5670
1546	5673
1535	5676
1531	5679
1529	5681
1531	5683
1531	5686
1538	5688
1548	5691
1554	5693
1559	5695
1565	5698
1582	5700
1598	5703
1594	5705
1580	5707
1560	5710
1537	5712
1533	5715
1552	5718
1579	5720
1585	5723
1582	5725
1553	5728
1528	5730
1530	5732
1559	5735
1589	5737
1589	5740
1554	5742
1536	5745
1524	5747
1529	5749
1546	5752
1541	5754
1545	5757
1540	5760
1541	5762
1530	5765
1507	5767
1479	5770
1455	5772
1485	5774
1553	5777
1589	5779
1588	5782
1575	5784
1572	5786
1554	5789
1532	5791
1530	5794
1540	5796
1556	5798
1538	5801
1500	5804
1473	5807
1468	5809
1468	5812
1476	5814
1473	5816
1487	5819
1522	5821
1557	5824
1577	5826
1562	5828
1546	5831
1533	5833
1539	5836
1515	5838
1493	5840
1494	5843
1518	5846
1525	5849
1525	5851
1512	5853
1479	5856
1463	5858
1500	5861
1537	5863
1531	5865
1490	5868
1476	5870
1502	5873
1516	5875
1516	5877
1514	5880
1522	5882
1519	5885
1503	5888
1488	5891
1479	5893
1486	5895
1541	5898
1578	5900
1574	5903
1538	5905
1510	5907
1482	5910
1476	5912
1513	5915
1547	5917
1547	5919
1511	5922
1474	5924
1463	5927
1470	5929
1496	5932
1522	5935
1547	5937
1547	5940
1550	5942
1546	5944
1506	5947
1481	5949
1486	5952
1504	5954
1519	5957
1520	5959
1537	5961
1541	5964
1515	5966
1496	5969
1470	5971
1460	5974
1445	5977
1463	5979
1474	5982
1445	5984
1441	5986
1480	5989
1517	5991
1524	5994
1547	5996
1552	5998
1531	6001
1531	6003
1592	6006
1607	6008
1559	6010
1475	6013
1460	6016
1476	6019
1494	6021
1516	6024
1496	6026
1461	6028
1433	6031
1452	6033
1476	6036
1478	6038
1463	6040
1506	6043
1561	6045
1557	6048
1517	6050
1514	6052
1521	6055
1520	6057
1516	6061
1535	6063
1557	6065
1538	6068
1508	6070
1492	6073
1483	6075
1474	6077
1473	6080
1470	6082
1484	6085
1493	6087
1494	6089
1485	6092
1469	6094
1464	6097
1508	6099
1530	6103
1521	6105
1495	6107
1493	6110
1527	6112
1520	6115
1453	6117
1414	6119
1435	6122
1475	6124
1507	6127
1528	6129
1542	6131
1544	6134
1521	6136
1505	6139
1504	6141
1521	6144
1536	6147
1536	6149
1535	6152
1515	6154
1464	6156
1427	6159
1433	6161
1477	6164
1497	6166
1500	6169
1487	6171
1488	6173
1502	6176
1527	6178
1531	6181
1486	6183
1432	6185
1428	6189
1495	6191
1541	6194
1564	6196
1518	6198
1477	6201
1482	6203
1514	6206
1489	6208
1454	6210
1445	6213
1474	6215
1498	6218
1496	6220
1509	6222
1507	6225
1505	6227
1503	6231
1501	6233
1499	6236
1521	6238
1558	6240
1548	6243
1526	6245
1476	6248
1422	6250
1407	6252
1456	6255
1500	6257
1518	6260
1522	6262
1496	6264
1487	6267
1491	6269
1496	6273
1484	6275
1450	6277
1432	6280
1466	6282
1533	6285
1579	6287
1534	6289
1461	6292
1431	6294
1453	6297
1482	6299
1485	6301
1477	6304
1476	6306
1493	6309
1494	6311
1496	6315
1495	6317
1485	6319
1490	6322
1495	6324
1464	6327
1416	6329
1406	6331
1432	6334
1466	6336
1488	6339
1466	6341
1439	6343
1477	6346
1504	6348
1507	6351
1515	6353
1518	6355
1504	6359
1492	6361
1506	6364
1518	6366
1520	6368
1492	6371
1472	6373
1460	6376
1409	6378
1351	6381
1358	6383
1435	6385
1495	6388
1492	6390
1492	6393
1494	6395
1491	6397
1513	6401
1529	6403
1543	6406
1525	6408
1461	6410
1393	6413
1415	6415
1470	6418
1506	6420
1513	6422
1500	6425
1462	6427
1434	6430
1470	6432
1495	6434
1510	6437
1488	6439
1488	6443
1489	6445
1493	6447
1499	6450
1500	6452
1487	6455
1502	6457
1502	6459
1497	6462
1491	6464
1501	6467
1495	6469
1486	6472
1499	6474
1499	6476
1442	6479
1424	6481
1437	6484
1428	6487
1440	6489
1493	6492
1514	6494
1487	6497
1481	6499
1501	6501
1523	6504
1513	6506
1495	6509
1479	6511
1500	6513
1521	6516
1527	6518
1522	6521
1518	6523
1493	6525
1479	6529
1445	6531
1419	6534
1411	6536
1440	6538
1460	6541
1484	6543
1489	6546
1487	6548
1498	6550
1505	6553
1522	6555
1539	6558
1542	6560
1509	6563
1458	6565
1466	6567
1486	6571
1497	6573
1464	6576
1452	6578
1457	6580
1465	6583
1495	6585
1502	6588
1500	6590
1475	6592
1460	6595
1470	6597
1489	6600
1499	6602
1511	6604
1529	6607
1520	6609
1509	6612
1523	6615
1520	6617
1476	6620
1453	6622
1464	6625
1495	6627
1490	6629
1456	6632
1437	6634
1441	6637
1465	6639
1460	6641
1470	6644
1505	6646
1520	6649
1515	6651
1516	6654
1511	6657
1467	6659
1446	6662
1468	6664
1489	6667
1501	6669
1510	6671
1508	6674
1503	6676
1504	6679
1503	6681
1494	6683
1466	6686
1460	6688
1451	6691
1473	6693
1481	6695
1476	6699
1482	6701
1486	6704
1478	6706
1463	6708
1453	6711
1457	6713
1485	6716
1510	6718
1511	6720
1490	6723
1478	6725
1481	6728
1471	6730
1455	6733
1462	6735
1483	6737
1498	6740
1516	6743
1517	6746
1503	6748
1478	6750
1477	6753
1482	6755
1481	6758
1476	6760
1489	6762
1489	6765
1479	6767
1461	6770
1464	6772
1482	6774
1475	6777
1439	6779
1424	6782
1441	6785
1492	6787
1525	6790
1529	6792
1518	6795
1490	6797
1471	6799
1469	6802
1494	6804
1510	6807
1502	6809
1486	6811
1499	6814
1487	6816
1428	6819
1410	6821
1467	6824
1513	6827
1534	6829
1533	6832
1507	6834
1485	6837
1489	6839
1492	6841
1487	6844
1451	6846
1434	6849
1444	6851
1493	6853
1517	6856
1485	6858
1461	6861
1457	6863
1500	6865
1512	6868
1492	6871
1476	6874
1483	6876
1478	6878
1476	6881
1492	6883
1498	6886
1507	6888
1531	6890
1522	6893
1499	6895
1456	6898
1445	6900
1435	6902
1444	6905
1472	6907
1493	6910
1482	6913
1453	6916
1463	6918
1503	6920
1519	6923
1508	6925
1505	6928
1517	6930
1535	6932
1521	6935
1491	6937
1473	6940
1453	6942
1442	6944
1438	6947
1462	6949
1490	6952
1507	6955
1506	6957
1489	6960
1469	6962
1440	6965
1459	6967
1501	6969
1502	6972
1493	6974
1525	6977
1539	6979
1509	6982
1452	6984
1423	6986
1445	6989
1479	6991
1496	6994
1509	6996
1515	6999
1494	7002
1465	7004
1468	7007
1484	7009
1498	7011
1503	7014
1521	7016
1523	7019
1514	7021
1496	7023
1478	7026
1471	7028
1491	7031
1502	7033
1494	7035
1475	7038
1442	7041
1422	7044
1434	7046
1430	7049
1413	7051
1400	7053
1440	7056
1485	7058
1513	7061
1526	7063
1531	7065
1532	7068
1546	7070
1539	7073
1497	7075
1446	7077
1433	7080
1463	7083
1499	7086
1506	7088
1461	7090
1433	7093
1460	7095
1505	7098
1518	7100
1523	7102
1504	7105
1490	7107
1473	7110
1458	7112
1457	7115
1488	7117
1508	7119
1469	7122
1434	7124
1468	7128
1526	7130
1525	7132
1483	7135
1462	7137
1477	7140
1501	7142
1513	7144
1523	7147
1486	7149
1464	7152
1469	7154
1498	7156
1503	7159
1501	7161
1512	7164
1512	7166
1506	7169
1495	7172
1473	7174
1465	7177
1442	7179
1446	7182
1475	7184
1497	7186
1478	7189
1444	7191
1423	7194
1442	7196
1490	7198
1526	7201
1538	7203
1518	7206
1491	7208
1498	7211
1513	7214
1519	7216
1502	7219
1493	7221
1489	7223
1493	7226
1489	7228
1461	7231
1448	7233
1461	7235
1477	7238
1477	7240
1479	7243
1492	7245
1484	7247
1448	7250
1423	7252
1446	7256
1482	7258
1524	7261
1535	7263
1505	7265
1472	7268
1478	7270
1511	7273
1530	7275
1541	7277
1515	7280
1482	7282
1468	7285
1460	7287
1452	7289
1447	7292
1445	7294
1464	7298
1497	7300
1490	7302
1474	7305
1490	7307
1506	7310
1516	7312
1522	7314
1519	7317
1467	7319
1413	7322
1418	7324
1449	7326
1484	7329
1496	7331
1488	7334
1493	7336
1519	7340
1539	7342
1537	7344
1520	7347
1500	7349
1482	7352
1485	7354
1507	7356
1508	7359
1505	7361
1509	7364
1502	7366
1495	7368
1471	7371
1444	7373
1437	7376
1454	7378
1477	7380
1486	7384
1483	7386
1489	7389
1508	7391
1519	7393
1500	7396
1461	7398
1449	7401
1451	7403
1469	7405
1491	7408
1524	7410
1527	7413
1509	7415
1491	7418
1498	7420
1510	7422
1501	7426
1452	7428
1427	7431
1450	7433
1488	7435
1489	7438
1466	7440
1465	7443
1474	7445
1486	7447
1491	7450
1480	7452
1447	7455
1428	7457
1477	7459
1526	7462
1555	7464
1522	7468
1478	7470
1452	7472
1440	7475
1436	7477
1445	7480
1467	7482
1509	7485
1525	7487
1500	7489
1465	7492
1462	7494
1481	7497
1485	7499
1485	7501
1491	7504
1489	7506
1478	7510
1486	7512
1489	7514
1474	7517
1462	7519
1481	7522
1508	7524
1501	7526
1486	7529
1469	7531
1458	7534
1474	7536
1487	7538
1499	7541
1507	7543
1498	7546
1511	7548
1525	7552
1522	7554
1500	7556
1500	7559
1510	7561
1509	7564
1484	7566
1474	7568
1464	7571
1463	7573
1464	7576
1483	7578
1519	7580
1551	7583
1550	7585
1524	7588
1506	7590
1510	7592
1516	7596
1460	7598
1419	7601
1422	7603
1446	7605
1465	7608
1488	7610
1489	7613
1480	7615
1508	7618
1534	7620
1523	7622
1491	7625
1487	7627
1493	7630
1484	7632
1471	7634
1484	7638
1514	7640
1525	7643
1508	7645
1503	7647
1512	7650
1465	7652
1436	7655
1432	7657
1462	7659
1484	7662
1505	7664
1527	7667
1534	7669
1526	7671
1509	7674
1495	7676
1504	7680
1529	7682
1521	7685
1497	7687
1489	7689
1497	7692
1526	7694
1519	7697
1472	7699
1441	7701
1458	7704
1484	7706
1490	7709
1498	7711
1517	7713
1515	7716
1476	7718
1458	7721
1468	7724
1487	7726
1482	7729
1484	7731
1495	7734
1536	7736
1543	7738
1517	7741
1469	7743
1443	7746
1452	7748
1435	7750
1425	7753
1457	7755
1514	7758
1544	7760
1516	7763
1505	7766
1493	7768
1495	7771
1520	7773
1530	7776
1523	7778
1510	7780
1516	7783
1513	7785
1510	7788
1510	7790
1519	7792
1515	7795
1515	7797
1531	7800
1513	7802
1420	7804
1366	7808
1386	7810
1446	7813
1495	7815
1516	7817
1513	7820
1491	7822
1466	7825
1455	7827
1454	7830
1476	7832
1496	7834
1519	7837
1522	7839
1519	7842
1520	7844
1524	7846
1491	7849
1452	7852
1436	7855
1466	7857
1494	7859
1476	7862
1435	7864
1421	7867
1471	7869
1501	7871
1547	7874
1569	7876
1547	7879
1485	7881
1473	7883
1503	7886
1499	7888
1500	7891
1523	7894
1530	7896
1516	7899
1510	7901
1490	7904
1462	7906
1440	7909
1448	7911
1469	7913
1507	7916
1521	7918
1514	7921
1515	7923
1510	7925
1516	7928
1503	7930
1483	7933
1470	7936
1467	7938
1455	7941
1442	7943
1444	7946
1452	7948
1472	7950
1512	7953
1519	7955
1485	7958
1458	7960
1491	7962
1515	7965
1505	7967
1496	7970
1497	7972
1501	7975
1482	7977
1465	7980
1461	7983
1447	7985
1431	7988
1444	7990
1473	7992
1486	7995
1494	7997
1511	8000
1524	8002
1505	8004
1483	8007
1475	8009
1486	8012
1502	8014
1509	8016
1503	8019
1494	8022
1504	8025
1516	8027
1512	8029
1509	8032
1509	8034
1512	8037
1492	8039
1448	8042
1414	8044
1404	8046
1413	8049
1443	8051
1483	8054
1486	8056
1490	8058
1506	8061
1514	8064
1514	8067
1518	8069
1523	8071
1529	8074
1533	8076
1481	8079
1429	8081
1431	8083
1470	8086
1482	8088
1485	8091
1505	8093
1507	8095
1447	8098
1431	8100
1463	8103
1519	8105
1533	8108
1518	8111
1512	8113
1511	8116
1512	8118
1504	8120
1496	8123
1495	8125
1500	8128
1506	8130
1502	8133
1500	8135
1505	8137
1499	8140
1481	8142
1473	8145
1483	8147
1513	8150
1530	8153
1541	8155
1547	8158
1523	8160
1454	8162
1413	8165
1445	8167
1480	8170
1486	8172
1476	8174
1471	8177
1486	8179
1501	8182
1484	8184
1475	8186
1497	8189
1547	8192
1545	8195
1521	8197
1506	8199
1475	8202
1455	8204
1461	8207
1480	8209
1467	8212
1447	8214
1466	8216
1503	8219
1517	8221
1520	8224
1526	8226
1537	8228
1551	8231
1524	8233
1490	8237
1495	8239
1511	8241
1518	8244
1502	8246
1482	8249
1466	8251
1467	8253
1499	8256
1512	8258
1505	8261
1499	8263
1481	8265
1469	8268
1472	8270
1490	8273
1504	8275
1522	8278
1526	8281
1513	8283
1518	8286
1505	8288
1480	8291
1453	8293
1454	8295
1485	8298
1518	8300
1511	8303
1493	8305
1485	8307
1459	8310
1441	8312
1460	8315
1498	8317
1509	8320
1510	8323
1516	8325
1515	8328
1496	8330
1475	8332
1492	8335
1502	8337
1505	8340
1480	8342
1472	8344
1463	8347
1472	8349
1474	8352
1461	8354
1496	8356
1540	8359
1568	8361
1539	8365
1486	8367
1486	8370
1500	8372
1505	8374
1494	8377
1484	8379
1494	8382
1513	8384
1518	8386
1473	8389
1426	8391
1427	8394
1475	8396
1494	8398
1483	8401
1481	8403
1524	8407
1555	8409
1543	8411
1498	8414
1483	8416
1476	8419
1453	8421
1450	8423
1476	8426
1488	8428
1466	8431
1457	8433
1470	8435
1489	8438
1498	8440
1509	8443
1518	8445
1524	8449
1491	8451
1468	8453
1474	8456
1492	8458
1476	8461
1462	8463
1464	8465
1517	8468
1541	8470
1512	8473
1479	8475
1483	8477
1494	8480
1509	8482
1534	8485
1518	8487
1452	8489
1421	8493
1444	8495
1465	8498
1407	8500
1379	8502
1427	8505
1502	8507
1533	8510
1518	8512
1532	8515
1551	8517
1558	8519
1554	8522
1540	8524
1519	8527
1495	8529
1485	8531
1499	8535
1534	8537
1531	8540
1478	8542
1442	8544
1459	8547
1484	8549
1485	8552
1475	8554
1475	8556
1481	8559
1465	8561
1457	8564
1469	8566
1503	8568
1515	8571
1518	8573
1569	8577
1573	8579
1506	8582
1463	8584
1448	8586
1446	8589
1439	8591
1441	8594
1464	8596
1497	8598
1515	8601
1522	8603
1540	8606
1531	8608
1489	8610
1448	8613
1453	8615
1451	8619
1445	8621
1459	8623
1508	8626
1525	8628
1503	8631
1481	8633
1473	8635
1485	8638
1507	8640
1522	8643
1524	8645
1527	8648
1520	8650
1493	8652
1477	8655
1470	8657
1438	8660
1394	8663
1404	8665
1460	8668
1496	8670
1487	8673
1476	8675
1484	8677
1506	8680
1523	8682
1518	8685
1505	8687
1496	8689
1485	8692
1446	8694
1424	8697
1451	8699
1511	8701
1533	8705
1523	8707
1507	8710
1479	8712
1465	8714
1505	8717
1557	8719
1566	8722
1527	8724
1481	8727
1473	8729
1475	8731
1435	8734
1389	8736
1398	8739
1462	8741
1502	8743
1495	8747
1500	8749
1520	8752
1524	8754
1504	8756
1471	8759
1510	8761
1573	8764
1562	8766
1488	8768
1432	8771
1411	8773
1394	8776
1414	8778
1446	8780
1465	8783
1492	8785
1541	8788
1547	8791
1539	8794
1526	8796
1499	8798
1462	8801
1461	8803
1496	8806
1522	8808
1516	8810
1490	8813
1458	8815
1439	8818
1437	8820
1465	8822
1513	8825
1570	8827
1532	8830
1461	8833
1436	8835
1442	8838
1437	8840
1456	8843
1494	8845
1505	8847
1490	8850
1457	8852
1447	8855
1466	8857
1487	8859
1511	8862
1525	8864
1534	8867
1547	8869
1519	8872
1473	8875
1456	8877
1471	8880
1480	8882
1465	8885
1459	8887
1467	8889
1492	8892
1509	8894
1504	8897
1453	8899
1427	8901
1490	8904
1546	8906
1553	8909
1548	8911
1524	8913
1504	8916
1495	8919
1486	8922
1461	8924
1453	8926
1456	8929
1474	8931
1511	8934
1521	8936
1492	8938
1476	8941
1471	8943
1498	8946
1517	8948
1506	8951
1491	8953
1479	8955
1486	8958
1489	8961
1470	8964
1457	8966
1480	8968
1521	8971
1528	8973
1533	8976
1513	8978
1488	8980
1441	8983
1452	8985
1481	8988
1502	8990
1497	8992
1497	8995
1506	8997
1488	9000
1452	9003
1494	9005
1567	9008
1568	9010
1513	9013
1487	9015
1486	9018
1497	9020
1498	9022
1481	9025
1436	9027
1417	9030
1427	9032
1465	9034
1483	9037
1512	9039
1530	9042
1529	9044
1517	9047
1500	9050
1475	9052
1456	9055
1453	9057
1456	9059
1449	9062
1442	9064
1438	9067
1449	9069
1472	9071
1491	9074
1508	9076
1497	9079
1485	9081
1470	9083
1453	9086
1443	9089
1449	9092
1468	9094
1478	9097
1490	9099
1503	9101
1513	9104
1501	9106
1482	9109
1496	9111
1511	9113
1506	9116
1497	9118
1473	9121
1443	9123
1433	9125
1449	9128
1442	9131
1435	9134
1448	9136
1466	9138
1472	9141
1479	9143
1485	9146
1505	9148
1531	9150
1525	9153
1509	9155
1467	9158
1451	9160
1440	9163
1459	9165
1482	9167
1490	9170
1474	9172
1457	9176
1463	9178
1483	9180
1493	9183
1502	9185
1501	9188
1490	9190
1483	9192
1517	9195
1545	9197
1518	9200
1449	9202
1426	9204
1448	9207
1499	9209
1503	9212
1484	9214
1473	9217
1496	9220
1510	9222
1514	9225
1520	9227
1502	9230
1484	9232
1480	9234
1527	9237
1561	9239
1549	9242
1476	9244
1424	9246
1452	9249
1484	9251
1467	9254
1450	9256
1431	9259
1451	9262
1508	9264
1565	9267
1598	9269
1589	9271
1559	9274
1518	9276
1510	9279
1484	9281
1468	9283
1479	9286
1494	9288
1472	9291
1462	9293
1483	9295
1495	9298
1490	9300
1502	9304
1524	9306
1527	9309
1528	9311
1553	9313
1556	9316
1529	9318
1496	9321
1476	9323
1480	9325
1479	9328
1454	9330
1465	9333
1499	9335
1534	9337
1565	9340
1581	9342
1560	9346
1494	9348
1442	9350
1435	9353
1455	9355
1480	9358
1504	9360
1533	9362
1543	9365
1512	9367
1485	9370
1503	9372
1527	9375
1521	9377
1505	9379
1490	9382
1503	9384
1526	9388
1532	9390
1501	9392
1487	9395
1486	9397
1504	9400
1488	9402
1484	9404
1491	9407
1477	9409
1456	9412
1437	9414
1445	9416
1457	9419
1496	9421
1542	9424
1556	9426
1552	9428
1556	9432
1563	9434
1522	9437
1473	9439
1444	9442
1436	9444
1437	9446
1470	9449
1510	9451
1538	9454
1539	9456
1533	9458
1526	9461
1518	9463
1499	9466
1455	9468
1445	9470
1485	9474
1542	9476
1552	9479
1516	9481
1499	9483
1470	9486
1483	9488
1522	9491
1538	9493
1526	9495
1514	9498
1506	9500
1490	9503
1464	9505
1446	9508
1438	9510
1465	9512
1485	9516
1509	9518
1540	9521
1536	9523
1510	9525
1481	9528
1485	9530
1512	9533
1532	9535
1552	9537
1563	9540
1564	9542
1537	9545
1475	9547
1422	9549
1423	9552
1481	9554
1501	9558
1460	9560
1438	9562
1453	9565
1507	9567
1557	9570
1599	9572
1567	9575
1506	9577
1478	9579
1487	9582
1483	9584
1428	9587
1389	9589
1423	9591
1508	9594
1534	9596
1540	9600
1533	9602
1523	9604
1497	9607
1473	9609
1493	9612
1520	9614
1498	9616
1480	9619
1500	9621
1497	9624
1478	9626
1467	9628
1470	9631
1495	9633
1536	9636
1551	9638
1536	9640
1495	9644
1477	9646
1452	9649
1445	9651
1477	9654
1496	9656
1508	9658
1503	9661
1447	9663
1413	9666
1442	9668
1494	9670
1527	9673
1543	9675
1539	9678
1530	9680
1518	9682
1515	9686
1469	9688
1444	9691
1454	9693
1450	9695
1410	9698
1414	9700
1463	9703
1507	9705
1519	9707
1509	9710
1501	9712
1496	9715
1502	9717
1520	9719
1514	9722
1500	9724
1501	9728
1507	9730
1449	9733
1404	9735
1466	9737
1521	9740
1528	9742
1494	9745
1475	9747
1497	9749
1524	9752
1505	9754
1504	9757
1528	9759
1570	9761
1570	9764
1555	9766
1515	9769
1478	9772
1449	9774
1451	9777
1437	9779
1436	9782
1456	9784
1481	9786
1476	9789
1470	9791
1496	9794
1524	9796
1529	9799
1529	9801
1492	9803
1429	9806
1437	9808
1483	9811
1525	9814
1517	9816
1492	9819
1479	9821
1485	9824
1502	9826
1524	9828
1550	9831
1550	9833
1530	9836
1532	9838
1532	9840
1474	9843
1417	9845
1392	9848
1451	9850
1487	9852
1485	9856
1497	9858
1485	9861
1463	9863
1441	9865
1449	9868
1486	9870
1499	9873
1495	9875
1487	9878
1484	9880
1472	9882
1493	9885
1516	9887
1526	9890
1504	9892
1483	9894
1479	9897
1470	9900
1466	9903
1489	9905
1531	9907
1522	9910
1499	9912
1480	9915
1440	9917
1409	9919
1439	9922
1467	9924
1473	9927
1500	9929
1533	9931
1543	9934
1543	9936
1530	9939
1516	9942
1487	9945
1426	9947
1391	9949
1399	9952
1475	9954
1529	9957
1530	9959
1489	9961
1463	9964
1478	9966
1505	9969
1511	9971
1498	9973
1506	9976
1513	9978
1474	9981
1433	9984
1415	9986
1439	9989
1459	9991
1485	9994
1509	9996
1530	9998
1531	10001
1513	10003
1518	10006
1506	10008
1495	10011
1504	10013
1491	10016
1476	10018
1439	10021
1408	10023
1425	10025
1496	10029
1533	10031
1533	10034
1532	10036
1535	10039
1539	10041
1520	10044
1454	10046
1436	10049
1482	10051
1537	10053
1540	10056
1535	10058
1499	10061
1480	10063
1497	10066
1519	10068
1517	10072
1524	10074
1536	10077
1499	10079
1481	10082
1477	10084
1470	10086
1462	10089
1493	10091
1539	10094
1567	10096
1567	10099
1540	10101
1529	10104
1512	10106
1502	10109
1510	10112
1519	10114
1442	10117
1365	10119
1365	10122
1462	10124
1507	10127
1464	10129
1431	10132
1455	10134
1534	10137
1587	10139
1577	10141
1524	10144
1462	10146
1412	10149
1426	10151
1470	10155
1499	10157
1493	10160
1491	10162
1505	10165
1462	10167
1459	10170
1547	10172
1599	10174
1539	10177
1483	10179
1462	10182
1450	10184
1447	10187
1473	10189
1487	10192
1469	10194
1481	10198
1525	10200
1521	10202
1483	10205
1484	10207
1516	10210
1515	10212
1487	10215
1482	10217
1471	10220
1434	10222
1398	10225
1441	10227
1499	10229
1520	10232
1525	10234
1542	10237
1555	10240
1549	10243
1510	10245
1471	10248
1472	10250
1515	10253
1514	10255
1471	10257
1473	10260
1466	10262
1433	10265
1437	10267
1481	10270
1515	10272
1549	10275
1565	10277
1529	10280
1493	10283
1466	10286
1462	10288
1466	10290
1479	10293
1462	10295
1425	10298
1431	10300
1476	10303
1525	10305
1541	10308
1527	10310
1498	10313
1506	10315
1545	10317
1539	10320
1473	10322
1427	10326
1463	10328
1526	10331
1499	10333
1464	10336
1449	10338
1470	10341
1511	10343
1544	10345
1547	10348
1539	10350
1539	10353
1501	10355
1458	10358
1443	10360
1472	10363
1490	10365
1479	10369
1473	10371
1471	10374
1481	10376
1482	10378
1490	10381
1510	10383
1528	10386
1536	10388
1540	10391
1479	10393
1410	10396
1417	10398
1451	10401
1476	10403
1510	10405
1561	10408
1580	10411
1535	10414
1499	10416
1480	10419
1464	10421
1472	10424
1455	10426
1433	10429
1453	10431
1491	10433
1515	10436
1522	10438
1526	10441
1531	10443
1499	10446
1473	10448
1466	10451
1492	10454
1502	10457
1498	10459
1462	10461
1426	10464
1440	10466
1483	10469
1522	10471
1556	10474
1567	10476
1526	10479
1503	10481
1507	10484
1508	10486
1496	10489
1471	10491
1458	10493
1425	10497
1394	10499
1404	10502
1447	10504
1497	10507
1557	10509
1569	10512
1516	10514
1449	10517
1438	10519
1466	10521
1476	10524
1439	10526
1420	10529
1461	10531
1500	10534
1522	10536
1551	10540
1554	10542
1521	10545
1464	10547
1442	10549
1461	10552
1495	10554
1495	10557
1475	10559
1455	10562
1443	10564
1464	10567
1502	10569
1511	10572
1531	10574
1559	10577
1566	10579
1512	10582
1466	10585
1425	10587
1398	10590
1409	10592
1453	10595
1452	10597
1457	10600
1488	10602
1497	10605
1503	10607
1539	10609
1560	10612
1534	10614
1484	10617
1465	10619
1492	10622
1505	10625
1497	10628
1500	10630
1500	10633
1450	10635
1394	10637
1405	10640
1450	10642
1505	10645
1518	10647
1507	10650
1514	10652
1499	10655
1478	10657
1461	10660
1451	10662
1449	10664
1482	10668
1487	10670
1489	10673
1507	10675
1490	10678
1484	10680
1492	10683
1516	10685
1510	10688
1482	10690
1459	10693
1444	10695
1443	10697
1467	10700
1495	10702
1505	10705
1512	10707
1491	10711
1461	10713
1442	10716
1451	10718
1482	10721
1504	10723
1502	10725
1422	10728
1375	10730
1415	10733
1489	10735
1558	10738
1572	10740
1541	10743
1516	10745
1514	10748
1492	10750
1463	10753
1463	10756
1499	10758
1522	10761
1500	10763
1463	10766
1459	10768
1502	10771
1492	10773
1435	10776
1403	10778
1456	10780
1501	10783
1520	10785
1542	10788
1546	10790
1524	10793
1489	10796
1466	10799
1465	10801
1462	10804
1432	10806
1411	10809
1488	10811
1581	10813
1587	10816
1548	10818
1519	10821
1502	10823
1476	10826
1457	10828
1421	10831
1390	10833
1425	10836
1515	10839
1570	10841
1593	10844
1551	10846
1497	10849
1464	10851
1486	10854
1504	10856
1479	10859
1447	10861
1455	10864
1456	10866
1466	10868
1498	10871
1514	10873
1509	10876
1507	10878
1530	10882
1561	10884
1548	10887
1516	10889
1449	10892
1414	10894
1432	10897
1456	10899
1426	10901
1419	10904
1455	10906
1514	10909
1571	10911
1607	10914
1595	10916
1547	10919
1516	10921
1479	10925
1456	10927
1451	10929
1475	10932
1479	10934
1454	10937
1422	10939
1430	10942
1470	10944
1479	10947
1499	10949
1535	10952
1554	10954
1546	10956
1521	10959
1515	10961
1484	10964
1468	10967
1473	10970
1478	10972
1471	10975
1480	10977
1496	10980
1507	10982
1508	10985
1481	10987
1448	10989
1459	10992
1514	10994
1524	10997
1474	10999
1443	11002
1453	11004
1497	11008
1504	11010
1492	11013
1489	11015
1505	11017
1525	11020
1529	11022
1512	11025
1486	11027
1507	11030
1523	11032
1526	11035
1481	11037
1436	11040
1416	11042
1419	11044
1428	11047
1472	11049
1519	11053
1525	11055
1506	11058
1509	11060
1548	11063
1550	11065
1529	11068
1510	11070
1496	11072
1502	11075
1482	11077
1462	11080
1451	11082
1446	11085
1451	11087
1491	11090
1558	11092
1561	11096
1512	11098
1478	11101
1486	11103
1494	11105
1488	11108
1500	11110
1488	11113
1449	11115
1428	11118
1469	11120
1492	11123
1486	11125
1507	11128
1528	11130
1506	11132
1502	11136
1526	11138
1530	11141
1517	11143
1487	11146
1473	11148
1483	11151
1485	11153
1463	11156
1472	11158
1541	11160
1582	11163
1594	11165
1566	11168
1526	11170
1501	11173
1503	11175
1495	11179
1443	11181
1387	11184
1406	11186
1459	11188
1500	11191
1550	11193
1604	11196
1586	11198
1537	11201
1513	11203
1509	11206
1462	11208
1392	11211
1406	11213
1463	11216
1500	11218
1507	11220
1502	11224
1508	11226
1519	11229
1545	11231
1546	11234
1511	11236
1465	11239
1454	11241
1475	11244
1530	11246
1565	11248
1538	11251
1496	11253
1465	11256
1432	11258
1434	11261
1469	11264
1473	11267
1455	11269
1447	11272
1513	11274
1573	11276
1560	11279
1491	11281
1457	11284
1481	11286
1494	11289
1475	11291
1488	11294
1513	11296
1522	11299
1521	11301
1517	11304
1502	11307
1511	11309
1529	11312
1533	11314
1510	11317
1497	11319
1512	11322
1491	11324
1428	11327
1384	11329
1418	11332
1466	11334
1476	11336
1497	11339
1500	11341
1501	11344
1520	11346
1535	11350
1516	11352
1495	11355
1508	11357
1521	11360
1516	11362
1497	11364
1447	11367
1430	11369
1453	11372
1496	11374
1498	11377
1489	11379
1482	11382
1498	11384
1542	11387
1566	11389
1547	11393
1502	11395
1461	11397
1454	11400
1461	11402
1473	11405
1487	11407
1508	11410
1497	11412
1467	11415
1451	11417
1460	11420
1478	11422
1461	11424
1468	11427
1495	11429
1503	11432
1514	11435
1535	11438
1550	11440
1544	11443
1531	11445
1500	11448
1484	11450
1463	11452
1462	11455
1488	11457
1530	11460
1535	11462
1492	11465
1441	11467
1437	11470
1484	11472
1495	11475
1498	11478
1511	11480
1513	11483
1515	11485
1525	11488
1514	11490
1491	11493
1483	11495
1480	11498
1487	11500
1499	11503
1526	11505
1527	11508
1508	11510
1483	11512
1482	11515
1505	11517
1523	11521
1531	11523
1532	11526
1533	11528
1510	11531
1449	11533
1464	11536
1541	11538
1547	11540
1504	11543
1511	11545
1529	11548
1505	11550
1477	11553
1479	11555
1505	11558
1533	11560
1541	11564
1541	11566
1542	11568
1540	11571
1537	11573
1527	11576
1500	11578
1495	11581
1488	11583
1480	11586
1468	11588
1489	11591
1545	11593
1562	11596
1540	11598
1498	11600
1487	11603
1502	11606
1488	11609
1469	11611
1460	11614
1473	11616
1502	11619
1538	11621
1534	11624
1484	11626
1457	11628
1474	11631
1481	11633
1479	11636
1467	11638
1484	11641
1512	11643
1542	11646
1535	11649
1493	11652
1497	11654
1524	11656
1528	11659
1518	11661
1508	11664
1460	11666
1435	11669
1455	11671
1496	11674
1494	11676
1495	11679
1503	11681
1483	11684
1478	11686
1505	11688
1537	11692
1528	11694
1485	11697
1463	11699
1483	11702
1493	11704
1481	11707
1497	11709
1506	11712
1518	11714
1500	11716
1472	11719
1470	11721
1494	11724
1493	11726
1473	11729
1485	11731
1539	11735
1530	11737
1483	11740
1469	11742
1486	11744
1490	11747
1468	11749
1469	11752
1484	11754
1508	11757
1507	11759
1488	11762
1468	11764
1452	11767
1451	11769
1473	11772
1513	11774
1515	11777
1506	11780
1511	11782
1538	11785
1501	11787
1445	11790
1440	11792
1473	11795
1480	11797
1475	11800
1508	11802
1514	11804
1515	11807
1535	11809
1557	11812
1553	11814
1549	11817
1550	11820
1523	11823
1472	11825
1422	11828
1408	11830
1444	11832
1514	11835
1551	11837
1540	11840
1520	11842
1486	11845
1466	11847
1465	11850
1504	11852
1528	11855
1477	11857
1446	11860
1498	11863
1568	11865
1589	11868
1560	11870
1516	11873
1461	11875
1420	11878
1415	11880
1463	11883
1505	11885
1508	11888
1518	11890
1544	11892
1548	11895
1518	11897
1491	11900
1516	11902
1528	11906
1504	11908
1489	11911
1510	11913
1529	11916
1510	11918
1490	11920
1495	11923
1515	11925
1523	11928
1513	11930
1475	11933
1460	11935
1475	11938
1489	11940
1503	11943
1535	11945
1572	11948
1587	11951
1587	11953
1545	11956
1469	11958
1417	11961
1407	11963
1472	11966
1521	11968
1508	11971
1457	11973
1434	11976
1468	11978
1523	11980
1546	11983
1521	11985
1490	11988
1470	11991
1470	11994
1469	11996
1473	11999
1456	12001
1435	12004
1437	12006
1430	12008
1439	12011
1462	12013
1482	12016
1494	12018
1510	12021
1530	12023
1527	12026
1520	12028
1507	12032
1444	12034
1403	12036
1377	12039
1396	12041
1444	12044
1505	12046
1524	12049
1511	12051
1502	12054
1517	12056
1506	12059
1465	12061
1429	12064
1419	12066
1442	12068
1502	12071
1541	12073
1524	12077
1451	12079
1403	12082
1436	12084
1481	12087
1486	12089
1453	12092
1418	12094
1458	12096
1551	12099
1588	12101
1538	12104
1457	12106
1414	12109
1434	12111
1466	12114
1451	12116
1429	12120
1439	12122
1473	12124
1519	12127
1528	12129
1503	12132
1458	12134
1453	12137
1481	12139
1515	12142
1504	12144
1466	12147
1432	12149
1438	12152
1468	12154
1489	12156
1485	12160
1505	12162
1524	12165
1482	12167
1452	12170
1456	12172
1483	12175
1470	12177
1459	12180
1484	12182
1509	12184
1513	12187
1489	12189
1470	12192
1475	12194
1489	12197
1486	12199
1438	12203
1395	12205
1435	12208
1478	12210
1515	12212
1514	12215
1491	12217
1482	12220
1505	12222
1530	12225
1494	12227
1405	12230
1386	12232
1447	12235
1484	12237
1504	12240
1546	12242
1539	12244
1478	12248
1446	12250
1466	12253
1491	12255
1529	12258
1491	12260
1435	12263
1427	12265
1464	12268
1479	12270
1482	12272
1532	12275
1555	12277
1520	12280
1472	12282
1451	12285
1428	12288
1424	12291
1467	12293
1529	12296
1543	12298
1514	12300
1468	12303
1439	12305
1429	12308
1453	12310
1513	12313
1572	12315
1581	12318
1524	12320
1436	12323
1401	12325
1444	12328
1484	12331
1511	12333
1496	12336
1470	12338
1497	12341
1556	12343
1558	12346
1512	12348
1474	12351
1476	12353
1508	12356
1538	12358
1503	12360
1441	12363
1409	12365
1426	12368
1447	12370
1463	12374
1469	12376
1479	12379
1496	12381
1498	12384
1462	12386
1434	12388
1446	12391
1505	12393
1541	12396
1540	12398
1535	12401
1511	12403
1477	12406
1449	12408
1439	12411
1401	12413
1380	12416
1412	12419
1472	12421
1485	12424
1460	12426
1500	12429
1571	12431
1587	12434
1550	12436
1502	12439
1490	12441
1494	12444
1496	12446
1477	12448
1466	12451
1485	12453
1501	12456
1478	12459
1442	12462
1409	12464
1358	12467
1355	12469
1433	12472
1516	12474
1549	12476
1538	12479
1529	12481
1529	12484
1523	12486
1509	12489
1490	12491
1472	12494
1474	12496
1487	12499
1479	12502
1488	12504
1517	12507
1491	12509
1426	12512
1375	12514
1410	12517
1480	12519
1519	12522
1515	12524
1480	12527
1468	12529
1463	12532
1478	12534
1498	12536
1510	12539
1519	12541
1505	12545
1479	12547
1453	12550
1407	12552
1405	12555
1459	12557
1540	12560
1585	12562
1591	12564
1579	12567
1512	12569
1465	12572
1424	12574
1447	12577
1503	12579
1539	12582
1536	12584
1503	12588
1460	12590
1421	12592
1408	12595
1448	12597
1512	12600
1524	12602
1508	12605
1465	12607
1424	12610
1429	12612
1464	12615
1499	12617
1528	12620
1541	12622
1500	12624
1437	12627
1417	12630
1453	12633
1475	12635
1500	12638
1525	12640
1536	12643
1519	12645
1526	12648
1517	12650
1505	12652
1494	12655
1477	12657
1476	12660
1483	12662
1470	12665
1457	12667
1475	12670
1503	12673
1491	12676
1490	12678
1497	12680
1500	12683
1517	12685
1549	12688
1525	12690
1469	12693
1418	12695
1418	12698
1430	12700
1438	12703
1451	12705
1472	12707
1505	12710
1553	12712
1595	12716
1589	12718
1554	12721
1524	12723
1503	12726
1457	12728
1427	12731
1423	12733
1457	12736
1454	12738
1426	12740
1415	12743
1462	12745
1523	12748
1554	12750
1562	12753
1547	12755
1509	12759
1453	12761
1431	12764
1425	12766
1437	12768
1454	12771
1472	12773
1495	12776
1513	12778
1543	12781
1565	12783
1514	12786
1476	12788
1476	12791
1487	12793
1473	12795
1475	12798
1494	12801
1487	12804
1499	12806
1541	12809
1577	12811
1595	12814
1590	12816
1527	12819
1465	12821
1468	12824
1520	12826
1553	12828
1546	12831
1493	12833
1448	12836
1455	12838
1509	12841
1536	12844
1521	12847
1515	12849
1515	12852
1509	12854
1474	12856
1436	12859
1412	12861
1436	12864
1492	12866
1526	12869
1493	12871
1495	12874
1527	12876
1506	12879
1464	12881
1466	12883
1505	12887
1525	12889
1512	12892
1509	12894
1513	12897
1532	12899
1538	12902
1486	12904
1403	12907
1379	12909
1448	12911
1499	12914
1509	12916
1522	12919
1536	12921
1518	12924
1483	12926
1469	12930
1476	12932
1464	12935
1458	12937
1455	12940
1450	12942
1435	12944
1452	12947
1507	12949
1528	12952
1522	12954
1539	12957
1525	12959
1491	12962
1447	12964
1440	12967
1453	12969
1490	12972
1497	12975
1471	12977
1446	12980
1478	12982
1528	12985
1494	12987
1457	12990
1469	12992
1523	12995
1543	12997
1538	12999
1532	13002
1513	13004
1476	13007
1441	13009
1439	13012
1465	13015
1476	13018
1439	13020
1456	13023
1528	13025
1551	13028
1546	13030
1534	13032
1503	13035
1481	13037
1478	13040
1496	13042
1516	13045
1495	13047
1442	13050
1411	13052
1432	13056
1509	13058
1565	13060
1567	13063
1538	13065
1541	13068
1544	13070
1532	13073
1464	13075
1399	13078
1418	13080
1488	13083
1537	13085
1538	13087
1488	13090
1445	13092
1446	13095
1475	13097
1502	13101
1532	13103
1538	13106
1513	13108
1460	13111
1421	13113
1408	13115
1424	13118
1441	13120
1459	13123
1494	13125
1528	13128
1563	13130
1556	13133
1537	13135
1517	13138
1500	13140
1465	13144
1432	13146
1454	13148
1480	13151
1455	13153
1448	13156
1467	13158
1495	13161
1507	13163
1496	13166
1490	13168
1498	13171
1512	13173
1529	13175
1545	13178
1531	13180
1474	13184
1419	13186
1431	13189
1460	13191
1489	13194
1503	13196
1502	13199
1478	13201
1483	13203
1492	13206
1500	13208
1494	13211
1485	13213
1488	13216
1468	13218
1445	13221
1427	13223
1440	13227
1460	13229
1484	13232
1503	13234
1494	13236
1472	13239
1501	13241
1535	13244
1536	13246
1527	13249
1503	13251
1461	13254
1412	13256
1415	13259
1460	13261
1479	13263
1464	13266
1472	13268
1484	13272
1500	13274
1525	13277
1534	13279
1522	13282
1518	13284
1492	13287
1451	13289
1443	13291
1473	13294
1492	13296
1463	13299
1420	13301
1429	13304
1473	13306
1495	13309
1497	13312
1480	13315
1466	13317
1504	13320
1553	13322
1551	13324
1523	13327
1517	13329
1500	13332
1477	13334
1471	13337
1511	13339
1529	13342
1492	13344
1458	13347
1428	13349
1419	13351
1437	13355
1492	13357
1556	13360
1586	13362
1569	13365
1526	13367
1486	13370
1479	13372
1470	13375
1453	13377
1445	13379
1476	13382
1530	13384
1546	13387
1544	13389
1534	13392
1502	13394
1444	13398
1434	13400
1474	13403
1493	13405
1491	13407
1477	13410
1463	13412
1457	13415
1467	13417
1491	13420
1535	13422
1555	13425
1557	13427
1555	13430
1534	13432
1511	13435
1476	13437
1431	13440
1384	13443
1388	13445
1455	13448
1512	13450
1524	13453
1512	13455
1514	13458
1527	13460
1506	13463
1461	13465
1448	13467
1481	13470
1497	13472
1511	13475
1528	13477
1528	13480
1509	13483
1462	13486
1452	13488
1483	13491
1512	13493
1507	13495
1465	13498
1482	13500
1540	13503
1542	13505
1501	13508
1427	13510
1377	13513
1410	13515
1520	13518
1565	13520
1510	13523
1494	13526
1528	13528
1573	13531
1580	13533
1530	13536
1453	13538
1442	13541
1518	13543
1557	13546
1508	13548
1473	13551
1469	13553
1488	13555
1528	13558
1589	13560
1594	13563
1499	13565
1428	13569
1419	13571
1445	13574
1467	13576
1514	13579
1543	13581
1547	13583
1528	13586
1510	13588
1521	13591
1545	13593
1538	13596
1513	13598
1487	13601
1486	13603
1496	13606
1487	13608
1469	13611
1491	13614
1509	13616
1450	13619
1388	13621
1418	13624
1503	13626
1557	13629
1581	13631
1576	13634
1522	13636
1460	13639
1439	13641
1434	13643
1441	13646
1467	13648
1520	13651
1521	13654
1501	13657
1483	13659
1466	13662
1411	13664
1365	13667
1434	13669
1543	13671
1582	13674
1550	13676
1511	13679
1487	13681
1447	13684
1444	13686
1477	13689
1484	13691
1478	13694
1496	13697
1527	13699
1500	13702
1452	13704
1459	13707
1519	13709
1528	13712
1483	13714
1454	13717
1466	13719
1523	13722
1535	13724
1517	13727
1503	13729
1525	13731
1525	13734
1515	13736
1482	13740
1464	13742
1462	13745
1494	13747
1537	13750
1554	13752
1517	13755
1450	13757
1429	13759
1456	13762
1463	13764
1455	13767
1487	13769
1515	13772
1495	13774
1476	13777
1500	13779
1527	13783
1506	13785
1467	13787
1431	13790
1428	13792
1464	13795
1517	13797
1538	13800
1528	13802
1521	13805
1499	13807
1476	13810
1471	13812
1478	13815
1472	13817
1454	13819
1455	13822
1465	13825
1460	13828
1448	13830
1459	13833
1486	13835
1483	13838
1460	13840
1451	13843
1481	13845
1509	13847
1509	13850
1509	13852
1512	13855
1510	13857
1479	13860
1459	13862
1464	13865
1476	13868
1475	13871
1460	13873
1461	13875
1468	13878
1488	13880
1527	13883
1544	13885
1529	13888
1495	13890
1486	13893
1499	13895
1497	13898
1450	13900
1412	13902
1451	13905
1526	13907
1553	13911
1538	13913
1507	13916
1490	13918
1475	13921
1457	13923
1469	13926
1492	13928
1478	13931
1424	13933
1392	13935
1416	13938
1444	13940
1452	13943
1466	13945
1501	13948
1520	13950
1507	13954
1479	13956
1459	13959
1474	13961
1513	13963
1508	13966
1468	13968
1453	13971
1468	13973
1471	13976
1478	13978
1491	13981
1510	13983
1517	13986
1529	13988
1542	13990
1539	13993
1523	13996
1480	13999
1415	14001
1387	14004
1424	14006
1495	14009
1521	14011
1481	14014
1435	14016
1430	14019
1460	14021
1489	14023
1515	14026
1526	14028
1502	14031
1484	14033
1518	14036
1567	14039
1567	14042
1546	14044
1523	14047
1489	14049
1432	14051
1415	14054
1450	14056
1455	14059
1446	14061
1450	14064
1509	14066
1538	14069
1532	14071
1510	14074
1490	14076
1473	14078
1508	14082
1554	14084
1564	14087
1531	14089
1508	14092
1515	14094
1498	14097
1469	14099
1444	14102
1466	14104
1482	14106
1456	14109
1445	14111
1459	14114
1466	14116
1471	14119
1522	14121
1566	14125
1566	14127
1513	14130
1479	14132
1469	14135
1475	14137
1482	14139
1485	14142
1488	14144
1487	14147
1490	14149
1503	14152
1507	14154
1492	14157
1490	14159
1483	14162
1467	14164
1454	14167
1456	14170
1482	14172
1517	14175
1533	14177
1521	14180
1491	14182
1471	14185
1463	14187
1452	14190
1472	14192
1488	14194
1496	14197
1502	14199
1501	14202
1500	14204
1488	14208
1479	14210
1473	14213
1472	14215
1477	14218
1488	14220
1503	14223
1511	14225
1534	14227
1550	14230
1515	14232
1439	14235
1412	14237
1438	14240
1456	14242
1446	14245
1447	14247
1479	14251
1501	14253
1502	14255
1501	14258
1499	14260
1498	14263
1515	14265
1511	14268
1492	14270
1467	14273
1445	14275
1446	14278
1457	14280
1470	14282
1474	14285
1471	14287
1483	14290
1526	14292
1549	14296
1523	14298
1482	14301
1447	14303
1441	14306
1467	14308
1480	14311
1483	14313
1495	14315
1499	14318
1487	14320
1490	14323
1514	14325
1506	14328
1451	14330
1437	14333
1500	14336
1554	14339
1565	14341
1557	14343
1548	14346
1517	14348
1494	14351
1505	14353
1522	14356
1519	14358
1481	14361
1461	14363
1472	14366
1482	14368
1485	14370
1488	14373
1511	14375
1513	14379
1507	14381
1508	14384
1527	14386
1538	14389
1497	14391
1433	14394
1414	14396
1437	14399
1446	14401
1477	14403
1513	14406
1526	14408
1518	14411
1521	14413
1540	14416
1507	14418
1485	14422
1487	14424
1505	14427
1511	14429
1503	14431
1495	14434
1475	14436
1463	14439
1464	14441
1486	14444
1502	14446
1488	14449
1488	14451
1500	14454
1515	14456
1495	14458
1473	14461
1470	14464
1487	14467
1524	14469
1571	14472
1576	14474
1526	14477
1488	14479
1465	14482
1451	14484
1439	14487
1441	14489
1466	14491
1505	14494
1535	14496
1556	14499
1551	14501
1547	14504
1547	14507
1542	14510
1545	14512
1526	14515
1489	14517
1458	14519
1438	14522
1425	14524
1426	14527
1448	14529
1465	14532
1476	14534
1499	14537
1530	14539
1534	14542
1513	14544
1485	14546
1480	14550
1485	14552
1465	14555
1452	14557
1464	14560
1493	14562
1522	14565
1543	14567
1552	14570
1540	14572
1505	14575
1495	14577
1496	14579
1479	14582
1473	14584
1461	14587
1459	14589
1484	14593
1518	14595
1498	14598
1461	14600
1477	14603
1539	14605
1547	14607
1520	14610
1493	14612
1477	14615
1457	14617
1443	14620
1448	14622
1484	14625
1502	14627
1496	14630
1516	14632
1553	14635
1549	14638
1501	14640
1440	14643
1399	14645
1412	14648
1478	14650
1560	14653
1557	14655
1510	14658
1464	14660
1470	14662
1507	14665
1515	14667
1520	14670
1536	14672
1529	14675
1511	14678
1486	14681
1499	14683
1508	14686
1504	14688
1507	14690
1530	14693
1498	14695
1440	14698
1411	14700
1417	14703
1476	14705
1532	14708
1547	14710
1531	14713
1505	14715
1477	14718
1457	14721
1449	14723
1445	14726
1465	14728
1508	14731
1538	14733
1541	14736
1547	14738
1544	14741
1527	14743
1488	14746
1475	14748
1469	14750
1450	14753
1411	14755
1413	14758
1428	14760
1443	14764
1459	14766
1484	14769
1521	14771
1535	14774
1520	14776
1497	14779
1492	14781
1500	14783
1507	14786
1503	14788
1506	14791
1505	14793
1485	14796
1470	14798
1470	14801
1471	14803
1479	14807
1479	14809
1482	14811
1461	14814
1446	14816
1462	14819
1474	14821
1456	14824
1448	14826
1455	14829
1476	14831
1490	14834
1486	14836
1504	14838
1498	14841
1475	14843
1478	14846
1516	14849
1548	14852
1548	14854
1541	14857
1524	14859
1486	14862
1467	14864
1448	14866
1427	14869
1427	14871
1447	14874
1488	14876
1504	14879
1520	14881
1538	14884
1538	14886
1531	14889
1508	14892
1497	14895
1491	14897
1489	14899
1457	14902
1450	14904
1461	14907
1473	14909
1456	14912
1471	14914
1523	14917
1537	14919
1517	14922
1514	14924
1520	14926
1519	14929
1510	14931
1511	14935
1512	14937
1496	14940
1505	14942
1516	14945
1514	14947
1496	14950
1480	14952
1425	14954
1407	14957
1423	14959
1457	14962
1475	14964
1494	14967
1505	14969
1499	14972
1504	14974
1511	14978
1507	14980
1509	14983
1464	14985
1425	14987
1431	14990
1436	14992
1444	14995
1456	14997
1490	15000
1498	15002
1478	15005
1457	15007
1463	15010
1509	15012
1544	15014
1544	15017
1510	15020
1484	15023
1484	15025
1510	15028
1518	15030
1521	15033
1512	15035
1484	15038
1444	15040
1424	15042
1436	15045
1466	15047
1480	15050
1457	15052
1391	15055
1346	15057
1368	15060
1443	15063
1485	15066
1499	15068
1487	15071
1480	15073
1475	15075
1485	15078
1511	15080
1538	15083
1545	15085
1551	15088
1563	15090
1570	15093
1552	15095
1531	15098
1499	15100
1455	15102
1429	15106
1424	15108
1459	15111
1478	15113
1453	15116
1439	15118
1452	15121
1476	15123
1509	15126
1521	15128
1520	15130
1517	15133
1505	15135
1485	15138
1469	15140
1465	15143
1466	15145
1479	15149
1480	15151
1485	15154
1498	15156
1504	15159
1499	15161
1483	15163
1451	15166
1466	15168
1510	15171
1530	15173
1505	15176
1490	15178
1460	15181
1443	15183
1453	15186
1458	15188
1478	15191
1493	15194
1498	15196
1494	15199
1496	15201
1492	15204
1437	15206
1378	15209
1393	15211
1453	15214
1478	15216
1459	15218
1445	15221
1470	15223
1502	15226
1537	15228
1556	15232
1542	15234
1507	15237
1483	15239
1511	15242
1518	15244
1474	15247
1428	15249
1433	15251
1455	15254
1405	15256
1380	15259
1416	15261
1467	15264
1485	15266
1496	15269
1526	15271
1546	15275
1563	15277
1555	15279
1530	15282
1516	15284
1486	15287
1455	15289
1454	15292
1489	15294
1503	15297
1482	15299
1469	15302
1470	15304
1485	15306
1517	15309
1530	15311
1481	15314
1452	15316
1461	15320
1490	15322
1495	15325
1491	15327
1483	15330
1482	15332
1501	15335
1516	15337
1526	15339
1533	15342
1510	15344
1460	15347
1423	15349
1479	15352
1532	15354
1546	15357
1535	15360
1512	15363
1499	15365
1478	15367
1455	15370
1457	15372
1479	15375
1432	15377
1408	15380
1455	15382
1529	15385
1570	15387
1576	15390
1519	15392
1473	15394
1489	15397
1516	15399
1510	15403
1498	15405
1478	15408
1476	15410
1541	15413
1570	15415
1534	15418
1506	15420
1479	15422
1446	15425
1437	15427
1489	15430
1557	15432
1557	15435
1509	15437
1468	15440
1460	15442
1446	15446
1412	15448
1409	15451
1455	15453
1511	15455
1518	15458
1505	15460
1494	15463
1477	15465
1481	15468
1500	15470
1512	15473
1520	15475
1518	15478
1521	15480
1484	15482
1472	15485
1504	15488
1537	15491
1550	15493
1534	15496
1512	15498
1501	15501
1505	15503
1465	15506
1457	15508
1467	15510
1492	15513
1495	15515
1489	15518
1527	15520
1520	15523
1482	15525
1469	15528
1499	15531
1542	15534
1545	15536
1517	15538
1479	15541
1448	15543
1445	15546
1470	15548
1498	15551
1471	15553
1445	15556
1468	15558
1509	15561
1518	15563
1529	15566
1582	15568
1613	15570
1584	15574
1507	15576
1475	15579
1491	15581
1508	15584
1471	15586
1432	15589
1409	15591
1448	15594
1482	15596
1457	15598
1420	15601
1408	15603
1461	15606
1527	15608
1589	15611
1577	15613
1550	15617
1535	15619
1541	15622
1523	15624
1498	15626
1503	15629
1516	15631
1512	15634
1503	15636
1488	15639
1433	15641
1415	15644
1451	15646
1511	15649
1536	15651
1542	15654
1531	15656
1509	15659
1490	15662
1479	15664
1448	15667
1422	15669
1418	15672
1469	15674
1491	15677
1474	15679
1484	15682
1494	15684
1492	15686
1503	15689
1524	15691
1537	15694
1532	15696
1526	15699
1498	15702
1473	15705
1448	15707
1452	15710
1464	15712
1468	15714
1473	15717
1478	15719
1494	15722
1506	15724
1514	15727
1491	15729
1475	15732
1462	15734
1477	15737
1482	15739
1488	15742
1506	15745
1474	15747
1449	15750
1427	15752
1476	15755
1521	15757
1527	15760
1527	15762
1521	15765
1499	15767
1486	15770
1472	15772
1461	15774
1480	15777
1490	15779
1474	15782
1454	15784
1452	15788
1471	15790
1497	15793
1564	15795
1604	15798
1594	15800
1561	15802
1530	15805
1505	15807
1479	15810
1465	15812
1447	15815
1436	15817
1446	15820
1436	15822
1395	15825
1391	15827
1436	15831
1543	15833
1608	15835
1596	15838
1533	15840
1476	15843
1463	15845
1481	15848
1500	15850
1508	15853
1520	15855
1531	15858
1525	15860
1499	15862
1450	15865
1404	15867
1386	15870
1404	15873
1457	15876
1506	15878
1512	15881
1527	15883
1520	15886
1500	15888
1496	15890
1519	15893
1554	15895
1543	15898
1511	15900
1468	15903
1446	15905
1448	15908
1470	15910
1483	15913
1497	15916
1505	15919
1526	15921
1542	15923
1542	15926
1520	15928
1498	15931
1500	15933
1496	15936
1490	15938
1492	15941
1503	15943
1510	15946
1509	15948
1484	15950
1444	15953
1426	15955
1467	15959
1519	15961
1555	15964
1554	15966
1516	15969
1491	15971
1505	15974
1567	15976
1580	15978
1522	15981
1506	15983
1541	15986
1552	15988
1532	15991
1502	15993
1474	15996
1445	15998
1491	16002
1546	16004
1590	16006
1595	16009
1567	16011
1539	16014
1514	16016
1496	16019
1479	16021
1474	16024
1509	16026
1542	16029
1545	16031
1518	16034
1471	16036
1464	16038
1458	16041
1455	16044
1448	16047
1421	16049
1419	16052
1461	16054
1521	16057
1559	16059
1571	16062
1569	16064
1522	16066
1466	16069
1445	16071
1459	16074
1483	16076
1488	16079
1470	16081
1476	16084
1483	16087
1450	16090
1444	16092
1477	16094
1513	16097
1514	16099
1478	16102
1467	16104
1480	16107
1513	16109
1526	16112
1497	16114
1450	16117
1446	16119
1492	16122
1526	16124
1504	16126
1475	16130
1515	16132
1539	16135
1527	16137
1498	16140
1476	16142
1468	16145
1467	16147
1503	16150
1516	16152
1470	16154
1444	16157
1447	16159
1462	16162
1465	16164
1479	16167
1518	16169
1536	16173
1534	16175
1503	16178
1485	16180
1471	16182
1482	16185
1511	16187
1537	16190
1560	16192
1555	16195
1491	16197
1413	16200
1362	16202
1384	16205
1496	16207
1586	16209
1591	16212
1558	16215
1534	16218
1517	16220
1475	16223
1442	16225
1442	16228
1473	16230
1503	16233
1517	16235
1508	16238
1501	16240
1479	16242
1452	16245
1442	16247
1448	16250
1463	16252
1474	16256
1484	16258
1505	16261
1515	16263
1534	16266
1528	16268
1501	16270
1458	16273
1403	16275
1391	16278
1452	16280
1556	16283
1601	16285
1568	16288
1536	16290
1512	16293
1524	16295
1560	16297
1545	16301
1514	16303
1499	16306
1434	16308
1366	16311
1350	16313
1420	16316
1492	16318
1524	16321
1547	16323
1582	16326
1604	16328
1593	16330
1562	16333
1520	16335
1482	16338
1448	16340
1406	16344
1374	16346
1402	16349
1470	16351
1494	16354
1487	16356
1474	16358
1475	16361
1482	16363
1489	16366
1501	16368
1533	16371
1597	16373
1635	16376
1632	16378
1570	16381
1439	16384
1373	16386
1401	16389
1472	16391
1479	16394
1456	16396
1469	16399
1484	16401
1461	16404
1431	16406
1443	16409
1542	16411
1624	16414
1639	16416
1532	16418
1429	16421
1423	16423
1471	16427
1499	16429
1493	16432
1496	16434
1519	16437
1553	16439
1579	16442
1587	16444
1574	16446
1530	16449
1492	16451
1478	16454
1496	16456
1514	16459
1505	16461
1488	16464
1467	16466
1462	16470
1424	16472
1401	16474
1401	16477
1453	16479
1499	16482
1500	16484
1498	16487
1503	16489
1508	16492
1496	16494
1448	16497
1421	16499
1429	16502
1486	16504
1558	16506
1573	16509
1539	16512
1514	16515
1484	16517
1458	16520
1440	16522
1451	16525
1462	16527
1474	16530
1483	16532
1495	16534
1487	16537
1490	16539
1519	16542
1555	16544
1570	16547
1548	16549
1515	16552
1504	16555
1487	16558
1475	16560
1467	16562
1484	16565
1525	16567
1545	16570
1503	16572
1453	16575
1434	16577
1475	16580
1526	16582
1568	16585
1573	16587
1532	16589
1491	16592
1495	16594
1501	16598
1504	16600
1492	16603
1486	16605
1480	16608
1468	16610
1474	16613
1482	16615
1456	16618
1437	16620
1452	16622
1500	16625
1515	16627
1492	16630
1468	16632
1445	16635
1472	16637
1488	16641
1511	16643
1555	16646
1567	16648
1570	16650
1547	16653
1521	16655
1499	16658
1476	16660
1487	16663
1489	16665
1474	16668
1468	16670
1464	16673
1459	16675
1443	16677
1454	16680
1494	16683
1529	16686
1574	16688
1589	16691
1553	16693
1505	16696
1425	16698
1387	16701
1390	16703
1439	16705
1482	16708
1525	16710
1548	16713
1586	16715
1574	16718
1524	16720
1488	16723
1480	16726
1463	16729
1425	16731
1413	16734
1427	16736
1445	16738
1480	16741
1506	16743
1515	16746
1499	16748
1501	16751
1517	16753
1518	16756
1499	16758
1494	16761
1503	16763
1485	16765
1439	16769
1450	16771
1503	16774
1561	16776
1571	16779
1543	16781
1520	16784
1495	16786
1467	16789
1448	16791
1462	16793
1521	16796
1553	16798
1512	16801
1437	16803
1404	16806
1447	16808
1504	16812
1520	16814
1500	16817
1495	16819
1500	16822
1531	16824
1546	16826
1537	16829
1533	16831
1529	16834
1435	16836
1365	16839
1363	16841
1460	16844
1514	16846
1494	16849
1446	16851
1431	16854
1482	16857
1544	16859
1571	16862
1549	16864
1521	16867
1459	16869
1440	16872
1445	16874
1485	16877
1520	16879
1505	16881
1488	16884
1492	16886
1494	16889
1510	16891
1492	16894
1471	16897
1461	16900
1489	16902
1519	16905
1503	16907
1485	16909
1478	16912
1514	16914
1558	16917
1546	16919
1465	16922
1383	16924
1380	16927
1467	16929
1544	16932
1575	16934
1556	16937
1534	16940
1510	16942
1491	16945
1485	16947
1476	16950
1475	16952
1477	16955
1483	16957
1489	16960
1446	16962
1403	16965
1394	16967
1437	16969
1499	16972
1536	16974
1555	16977
1566	16979
1561	16983
1554	16985
1514	16988
1452	16990
1427	16993
1444	16995
1492	16997
1449	17000
1390	17002
1364	17005
1410	17007
1462	17010
1498	17012
1535	17015
1551	17017
1545	17020
1505	17022
1488	17026
1490	17028
1492	17030
1483	17033
1474	17035
1427	17038
1380	17040
1400	17043
1500	17045
1578	17048
1571	17050
1513	17053
1449	17055
1442	17057
1499	17060
1564	17062
1556	17065
1506	17068
1443	17071
1403	17073
1415	17076
1447	17078
1507	17081
1511	17083
1472	17085
1451	17088
1461	17090
1501	17093
1532	17095
1548	17098
1556	17100
1545	17103
1512	17105
1467	17108
1455	17111
1419	17114
1398	17116
1407	17118
1469	17121
1520	17123
1509	17126
1471	17128
1476	17131
1499	17133
1527	17136
1512	17138
1478	17141
1446	17143
1457	17145
1501	17148
1550	17150
1602	17154
1602	17156
1569	17159
1513	17161
1481	17164
1489	17166
1484	17169
1443	17171
1357	17173
1330	17176
1374	17178
1472	17181
1541	17183
1570	17186
1582	17188
1562	17191
1545	17193
1524	17197
1479	17199
1466	17202
1455	17204
1465	17206
1469	17209
1478	17211
1490	17214
1497	17216
1519	17219
1515	17221
1479	17224
1472	17226
1509	17229
1535	17231
1527	17233
1534	17236
1556	17239
1585	17242
1572	17244
1533	17247
1458	17249
1388	17252
1373	17254
1408	17257
1450	17259
1464	17261
1463	17264
1461	17266
1467	17269
1472	17271
1507	17274
1544	17276
1549	17280
1497	17282
1450	17285
1453	17287
1472	17289
1485	17292
1472	17294
1488	17297
1499	17299
1483	17302
1473	17304
1485	17307
1516	17309
1532	17312
1531	17314
1524	17317
1495	17319
1473	17321
1482	17325
1554	17327
1601	17330
1585	17332
1534	17335
1463	17337
1407	17340
1400	17342
1434	17345
1477	17347
1500	17349
1486	17352
1488	17354
1506	17357
1521	17359
1524	17362
1511	17364
1523	17368
1553	17370
1556	17373
1536	17375
1491	17377
1426	17380
1378	17382
1382	17385
1403	17387
1431	17390
1446	17392
1480	17395
1516	17397
1532	17400
1511	17402
1498	17405
1516	17408
1554	17410
1570	17413
1538	17415
1531	17418
1568	17420
1592	17423
1548	17425
1464	17428
1368	17430
1342	17433
1379	17435
1450	17437
1518	17440
1523	17442
1518	17445
1496	17447
1485	17451
1475	17453
1488	17456
1518	17458
1538	17461
1536	17463
1488	17465
1476	17468
1457	17470
1432	17473
1414	17475
1431	17478
1498	17480
1570	17483
1581	17485
1564	17488
1531	17490
1467	17494
1435	17496
1455	17498
1485	17501
1509	17503
1530	17506
1561	17508
1556	17511
1523	17513
1508	17516
1520	17518
1537	17521
1528	17523
1486	17525
1449	17528
1449	17530
1466	17533
1505	17536
1539	17539
1553	17541
1530	17544
1485	17546
1416	17549
1374	17551
1373	17553
1423	17556
1467	17558
1495	17561
1506	17563
1511	17566
1500	17568
1474	17571
1457	17573
1446	17576
1433	17579
1429	17581
1434	17584
1459	17586
1494	17589
1533	17591
1535	17594
1540	17596
1513	17599
1490	17601
1472	17604
1473	17606
1481	17609
1499	17611
1514	17613
1535	17616
1541	17618
1510	17622
1466	17624
1441	17627
1458	17629
1484	17632
1479	17634
1453	17637
1435	17639
1430	17641
1435	17644
1430	17646
1439	17649
1461	17651
1487	17654
1497	17656
1485	17659
1477	17661
1457	17665
1456	17667
1471	17669
1481	17672
1490	17674
1479	17677
1458	17679
1459	17682
1520	17684
1554	17687
1485	17689
1394	17692
1399	17694
1490	17697
1557	17699
1571	17701
1570	17704
1545	17707
1518	17710
1507	17712
1516	17715
1542	17717
1540	17720
1523	17722
1506	17725
1499	17727
1452	17729
1380	17732
1355	17734
1421	17737
1514	17739
1563	17742
1562	17744
1546	17747
1495	17750
1447	17753
1429	17755
1472	17757
1515	17760
1545	17762
1548	17765
1539	17767
1494	17770
1450	17772
1440	17775
1456	17777
1499	17780
1514	17782
1507	17784
1467	17787
1429	17789
1443	17793
1486	17795
1516	17798
1509	17800
1475	17803
1469	17805
1493	17808
1522	17810
1507	17813
1491	17815
1508	17817
1548	17820
1565	17822
1518	17825
1479	17827
1487	17830
1522	17832
1490	17836
1435	17838
1393	17841
1436	17843
1530	17845
1591	17848
1593	17850
1548	17853
1479	17855
1455	17858
1467	17860
1477	17863
1469	17865
1445	17868
1453	17870
1480	17872
1533	17875
1566	17878
1566	17881
1485	17883
1379	17886
1362	17888
1427	17891
1512	17893
1533	17896
1514	17898
1462	17900
1395	17903
1369	17905
1407	17908
1482	17910
1524	17913
1501	17915
1472	17918
1479	17921
1543	17924
1589	17926
1569	17929
1521	17931
1515	17933
1528	17936
1542	17938
1542	17941
1520	17943
1468	17946
1430	17948
1440	17951
1488	17953
1542	17956
1561	17958
1519	17960
1445	17964
1411	17966
1450	17969
1535	17971
1589	17974
1606	17976
1618	17979
1598	17981
1534	17984
1469	17986
1454	17988
1449	17991
1402	17993
1375	17996
1404	17998
1491	18001
1533	18003
1523	18007
1497	18009
1463	18012
1408	18014
1390	18017
1443	18019
1513	18021
1546	18024
1551	18026
1550	18029
1537	18031
1499	18034
1481	18036
1474	18039
1464	18041
1455	18044
1438	18046
1450	18049
1468	18052
1451	18054
1422	18057
1423	18059
1482	18062
1548	18064
1564	18067
1542	18069
1509	18072
1485	18074
1485	18076
1500	18079
1523	18081
1535	18084
1536	18086
1502	18089
1415	18092
1352	18095
1372	18097
1454	18100
1513	18102
1520	18105
1541	18107
1564	18109
1573	18112
1596	18114
1572	18117
1512	18119
1405	18122
1381	18124
1468	18127
1597	18129
1621	18132
1566	18135
1515	18137
1502	18140
1514	18142
1521	18145
1502	18147
1438	18150
1406	18152
1395	18155
1419	18157
1432	18160
1452	18162
1478	18164
1494	18167
1507	18169
1526	18172
1567	18174
1615	18178
1634	18180
1611	18183
1517	18185
1412	18188
1313	18190
1315	18193
1391	18195
1495	18197
1551	18200
1598	18202
1624	18205
1630	18207
1619	18210
1589	18212
1555	18215
1536	18217
1501	18221
1474	18223
1465	18225
1482	18228
1467	18230
1459	18233
1443	18235
1418	18238
1411	18240
1428	18243
1490	18245
1536	18248
1526	18250
1511	18252
1501	18255
1465	18257
1370	18260
1336	18263
1398	18266
1517	18268
1544	18271
1498	18273
1471	18276
1479	18278
1484	18280
1479	18283
1484	18285
1514	18288
1565	18290
1590	18293
1559	18295
1501	18298
1474	18300
1486	18304
1520	18306
1512	18309
1503	18311
1517	18313
1521	18316
1511	18318
1494	18321
1475	18323
1477	18326
1497	18328
1531	18331
1536	18333
1491	18336
1442	18338
1394	18340
1398	18343
1439	18345
1511	18349
1570	18351
1579	18354
1586	18356
1576	18359
1550	18361
1492	18364
1456	18366
1451	18368
1467	18371
1451	18373
1427	18376
1456	18378
1516	18381
1546	18383
1503	18386
1464	18388
1465	18392
1487	18394
1496	18397
1503	18399
1504	18401
1483	18404
1453	18406
1455	18409
1493	18411
1556	18414
1530	18416
1450	18419
1407	18421
1453	18424
1513	18426
1502	18428
1472	18432
1475	18434
1473	18437
1454	18439
1441	18442
1472	18444
1538	18447
1596	18449
1624	18452
1605	18454
1572	18456
1522	18459
1474	18461
1464	18464
1453	18466
1450	18469
1425	18471
1390	18475
1396	18477
1464	18480
1564	18482
1591	18485
1530	18487
1460	18489
1450	18492
1462	18494
1473	18497
1474	18499
1481	18502
1484	18504
1480	18507
1448	18509
1430	18512
1416	18514
1452	18516
1502	18520
1535	18522
1525	18525
1512	18527
1509	18530
1530	18532
1565	18535
1587	18537
1586	18540
1560	18542
1537	18544
1521	18547
1517	18549
1523	18552
1489	18554
1415	18557
1390	18560
1422	18563
1456	18565
1491	18568
1505	18570
1543	18573
1537	18575
1499	18577
1480	18580
1494	18582
1531	18585
1586	18587
1613	18590
1555	18592
1448	18595
1379	18597
1411	18600
1489	18603
1529	18605
1553	18608
1556	18610
1545	18613
1539	18615
1527	18618
1522	18620
1528	18623
1552	18625
1582	18628
1566	18630
1539	18632
1466	18635
1383	18637
1355	18640
1393	18642
1442	18646
1495	18648
1515	18651
1531	18653
1507	18656
1472	18658
1435	18661
1439	18663
1486	18665
1547	18668
1561	18670
1522	18673
1486	18675
1475	18678
1461	18680
1446	18683
1460	18685
1499	18689
1505	18691
1486	18693
1493	18696
1518	18698
1532	18701
1535	18703
1527	18706
1493	18708
1453	18711
1465	18713
1517	18716
1535	18718
1511	18720
1497	18723
1474	18725
1472	18728
1483	18731
1495	18734
1496	18736
1484	18739
1491	18741
1510	18744
1550	18746
1521	18749
1473	18751
1454	18753
1485	18756
1536	18758
1499	18761
1418	18763
1384	18766
1418	18768
1498	18771
1544	18774
1548	18777
1517	18779
1484	18781
1445	18784
1438	18786
1454	18789
1514	18791
1549	18794
1560	18796
1549	18799
1547	18801
1549	18804
1548	18806
1517	18808
1457	18811
1405	18813
1371	18817
1398	18819
1464	18822
1532	18824
1547	18827
1523	18829
1484	18832
1452	18834
1438	18837
1453	18839
1448	18841
1437	18844
1446	18846
1483	18849
1515	18851
1531	18854
1518	18856
1495	18860
1463	18862
1437	18865
1453	18867
1490	18869
1506	18872
1500	18874
1509	18877
1510	18879
1495	18882
1496	18884
1503	18887
1503	18889
1491	18892
1482	18894
1478	18896
1488	18899
1501	18902
1504	18905
1487	18907
1450	18910
1420	18912
1431	18915
1450	18917
1419	18920
1333	18922
1305	18924
1353	18927
1475	18929
1570	18932
1595	18934
1595	18937
1592	18939
1589	18942
1572	18945
1544	18948
1520	18950
1498	18953
1496	18955
1479	18957
1430	18960
1414	18962
1381	18965
1367	18967
1375	18970
1431	18972
1504	18975
1531	18977
1511	18980
1483	18982
1477	18984
1496	18988
1533	18990
1559	18993
1567	18995
1558	18998
1529	19000
1501	19003
1440	19005
1404	19008
1390	19010
1436	19012
1500	19015
1531	19017
1504	19020
1471	19022
1470	19025
1504	19027
1542	19031
1559	19033
1567	19036
1575	19038
1524	19041
1424	19043
1321	19045
1305	19048
1356	19050
1427	19053
1479	19055
1528	19058
1575	19060
1595	19063
1571	19065
1531	19068
1521	19070
1547	19073
1585	19076
1595	19078
1508	19081
1432	19083
1407	19086
1420	19088
1412	19091
1370	19093
1397	19096
1492	19098
1560	19100
1570	19103
1550	19105
1544	19108
1551	19110
1539	19113
1481	19116
1449	19119
1475	19121
1530	19124
1529	19126
1488	19129
1449	19131
1465	19133
1493	19136
1487	19138
1465	19141
1462	19143
1470	19146
1489	19148
1505	19151
1505	19153
1478	19156
1456	19159
1467	19161
1501	19164
1528	19166
1503	19169
1483	19171
1470	19174
1458	19176
1460	19179
1460	19181
1481	19184
1494	19186
1519	19188
1519	19191
1475	19193
1435	19196
1417	19198
1438	19202
1459	19204
1477	19207
1515	19209
1540	19212
1533	19214
1488	19217
1460	19219
1479	19221
1502	19224
1518	19226
1513	19229
1495	19231
1465	19234
1414	19236
1416	19239
1455	19241
1510	19245
1541	19247
1528	19249
1509	19252
1488	19254
1468	19257
1436	19259
1426	19262
1451	19264
1490	19267
1508	19269
1493	19272
1471	19274
1467	19276
1468	19279
1477	19281
1509	19284
1523	19287
1508	19290
1443	19292
1368	19295
1367	19297
1444	19300
1534	19302
1560	19305
1535	19307
1514	19309
1503	19312
1492	19314
1483	19317
1457	19319
1431	19322
1420	19324
1416	19328
1401	19330
1408	19333
1455	19335
1526	19337
1567	19340
1555	19342
1538	19345
1521	19347
1497	19350
1483	19352
1460	19355
1455	19357
1457	19360
1470	19362
1493	19364
1478	19367
1455	19369
1419	19373
1406	19375
1429	19378
1446	19380
1472	19383
1500	19385
1526	19388
1520	19390
1498	19393
1489	19395
1510	19397
1490	19400
1457	19402
1449	19405
1450	19407
1456	19410
1445	19412
1443	19416
1469	19418
1504	19421
1509	19423
1490	19425
1437	19428
1398	19430
1390	19433
1436	19435
1469	19438
1459	19440
1435	19443
1453	19445
1503	19448
1527	19450
1518	19452
1515	19456
1526	19458
1526	19461
1504	19463
1485	19466
1513	19468
1540	19471
1536	19473
1539	19476
1526	19478
1466	19480
1398	19483
1351	19485
1382	19488
1437	19490
1511	19493
1540	19495
1534	19499
1520	19501
1530	19504
1563	19506
1566	19509
1543	19511
1524	19513
1530	19516
1539	19518
1540	19521
1528	19523
1521	19526
1507	19528
1474	19531
1428	19533
1450	19536
1494	19538
1532	19540
1512	19544
1490	19546
1495	19549
1515	19551
1521	19554
1507	19556
1486	19559
1484	19561
1451	19564
1404	19566
1377	19568
1394	19571
1448	19573
1501	19576
1537	19578
1557	19581
1555	19584
1543	19587
1508	19589
1483	19592
1487	19594
1503	19597
1512	19599
1513	19601
1499	19604
1486	19606
1502	19609
1514	19611
1493	19614
1458	19616
1476	19619
1523	19621
1558	19624
1575	19627
1572	19629
1528	19632
1457	19634
1427	19637
1470	19639
1509	19642
1508	19644
1499	19647
1515	19649
1539	19652
1548	19654
1543	19656
1555	19659
1588	19661
1608	19664
1533	19666
1448	19670
1409	19672
1479	19675
1525	19677
1507	19680
1485	19682
1492	19684
1513	19687
1510	19689
1486	19692
1473	19694
1507	19697
1545	19699
1536	19702
1473	19704
1448	19707
1464	19709
1504	19713
1545	19715
1552	19717
1554	19720
1546	19722
1558	19725
1555	19727
1538	19730
1501	19732
1461	19735
1458	19737
1453	19740
1484	19742
1514	19744
1516	19747
1471	19749
1438	19752
1461	19755
1517	19758
1557	19760
1561	19763
1526	19765
1451	19768
1416	19770
1428	19772
1483	19775
1552	19777
1556	19780
1496	19782
1452	19785
1450	19787
1483	19790
1511	19792
1508	19795
1485	19798
1469	19801
1485	19803
1512	19805
1520	19808
1501	19810
1480	19813
1461	19815
1443	19818
1426	19820
1400	19823
1416	19825
1475	19828
1498	19830
1474	19832
1456	19835
1482	19837
1527	19841
1567	19843
1586	19846
1585	19848
1548	19851
1488	19853
1389	19856
1341	19858
1393	19860
1497	19863
1544	19865
1514	19868
1462	19870
1433	19873
1469	19875
1536	19878
1599	19880
1591	19884
1543	19886
1501	19888
1502	19891
1515	19893
1503	19896
1469	19898
1416	19901
1384	19903
1385	19906
1430	19908
1479	19911
1491	19913
1491	19916
1494	19918
1506	19920
1513	19923
1545	19926
1548	19929
1494	19931
1447	19934
1412	19936
1446	19939
1479	19941
1478	19944
1466	19946
1465	19948
1467	19951
1445	19953
1428	19956
1432	19958
1467	19961
1491	19963
1481	19966
1437	19969
1359	19972
1331	19974
1370	19976
1470	19979
1547	19981
1573	19984
1589	19986
1602	19989
1582	19991
1538	19994
1499	19996
1452	19999
1412	20001
1388	20004
1416	20006
1479	20008
1492	20012
1474	20014
1459	20017
1467	20019
1448	20022
1426	20024
1440	20027
1497	20029
1533	20032
1545	20034
1554	20036
1538	20039
1517	20041
1503	20044
1489	20046
1451	20049
1442	20051
1454	20055
1482	20057
1469	20060
1435	20062
1416	20064
1449	20067
1516	20069
1555	20072
1536	20074
1482	20077
1460	20079
1483	20082
1493	20084
1478	20087
1424	20089
1409	20092
1426	20094
1481	20097
1489	20100
1446	20102
1430	20105
1478	20107
1528	20110
1559	20112
1562	20115
1568	20117
1575	20120
1553	20122
1501	20124
1469	20127
1470	20129
1501	20132
1443	20134
1340	20137
1322	20140
1421	20143
1533	20145
1551	20148
1531	20150
1518	20152
1517	20155
1517	20157
1514	20160
1557	20162
1571	20165
1551	20167
1507	20170
1472	20172
1473	20175
1485	20177
1491	20180
1490	20183
1484	20185
1469	20188
1435	20190
1442	20193
1480	20195
1533	20198
1561	20200
1518	20203
1444	20205
1401	20208
1434	20210
1494	20212
1509	20215
1473	20217
1425	20220
1420	20222
1462	20226
1525	20228
1548	20231
1544	20233
1582	20236
1589	20238
1551	20240
1510	20243
1488	20245
1504	20248
1523	20250
1527	20253
1525	20255
1525	20258
1519	20260
1472	20263
1412	20265
1378	20268
1430	20271
1508	20273
1539	20276
1514	20278
1431	20281
1372	20283
1371	20286
1441	20288
1505	20291
1541	20293
1542	20296
1516	20298
1487	20300
1510	20303
1563	20305
1548	20308
1495	20311
1467	20314
1466	20316
1454	20319
1448	20321
1488	20324
1565	20326
1585	20328
1581	20331
1569	20333
1556	20336
1524	20338
1486	20341
1476	20343
1475	20346
1459	20348
1458	20352
1485	20354
1490	20356
1459	20359
1438	20361
1480	20364
1528	20366
1512	20369
1481	20371
1479	20374
1492	20376
1507	20379
1518	20381
1515	20384
1513	20386
1466	20388
1436	20391
1428	20393
1462	20397
1491	20399
1492	20402
1489	20404
1499	20407
1525	20409
1538	20412
1515	20414
1497	20416
1497	20419
1515	20421
1520	20424
1499	20426
1514	20429
1531	20431
1522	20434
1476	20436
1442	20440
1447	20442
1486	20444
1492	20447
1444	20449
1422	20452
1456	20454
1502	20457
1524	20459
1537	20462
1516	20464
1470	20467
1440	20469
1428	20472
1479	20474
1522	20476
1516	20480
1491	20482
1487	20485
1526	20487
1584	20490
1608	20492
1621	20495
1624	20497
1601	20500
1558	20502
1515	20504
1432	20507
1391	20509
1420	20512
1490	20514
1530	20517
1513	20519
1476	20523
1454	20525
1463	20528
1492	20530
1527	20532
1495	20535
1464	20537
1436	20540
1457	20542
1474	20545
1473	20547
1460	20550
1416	20552
1356	20555
1363	20557
1415	20560
1492	20562
1505	20564
1464	20568
1448	20570
1453	20573
1476	20575
1503	20578
1518	20580
1503	20583
1496	20585
1494	20588
1492	20590
1462	20592
1425	20595
1424	20597
1462	20600
1489	20602
1508	20605
1536	20608
1524	20611
1517	20613
1530	20616
1546	20618
1503	20620
1420	20623
1360	20625
1379	20628
1449	20630
1518	20633
1570	20635
1593	20638
1560	20640
1552	20643
1575	20645
1569	20648
1488	20651
1408	20653
1391	20656
1421	20658
1448	20661
1425	20663
1402	20666
1421	20668
1479	20671
1530	20673
1557	20676
1560	20678
1557	20680
1514	20683
1478	20685
1487	20688
1526	20690
1463	20694
1338	20696
1285	20699
1319	20701
1424	20704
1527	20706
1578	20708
1588	20711
1584	20713
1550	20716
1520	20718
1500	20721
1464	20723
1434	20726
1412	20728
1416	20731
1428	20733
1473	20737
1501	20739
1529	20741
1533	20744
1547	20746
1548	20749
1544	20751
1547	20754
1543	20756
1509	20759
1458	20761
1411	20764
1415	20766
1452	20768
1482	20771
1483	20773
1504	20776
1539	20779
1554	20782
1518	20784
1477	20787
1483	20789
1546	20792
1579	20794
1539	20796
1467	20799
1431	20801
1416	20804
1399	20806
1427	20809
1464	20811
1510	20814
1523	20816
1512	20819
1491	20822
1501	20824
1522	20827
1526	20829
1502	20832
1446	20834
1414	20837
1432	20839
1457	20842
1469	20844
1458	20847
1474	20849
1496	20852
1505	20854
1514	20856
1516	20859
1528	20861
1536	20865
1512	20867
1494	20870
1454	20872
1447	20875
1485	20877
1538	20880
1573	20882
1565	20884
1531	20887
1460	20889
1415	20892
1397	20894
1410	20897
1418	20899
1430	20902
1464	20904
1519	20908
1587	20910
1585	20912
1504	20915
1453	20917
1470	20920
1522	20922
1536	20925
1463	20927
1380	20930
1345	20932
1378	20935
1449	20937
1492	20940
1505	20942
1480	20944
1451	20947
1450	20950
1477	20953
1482	20955
1487	20958
1491	20960
1491	20963
1507	20965
1533	20968
1533	20970
1507	20972
1495	20975
1516	20977
1538	20980
1544	20982
1530	20985
1516	20987
1498	20990
1457	20993
1385	20996
1365	20998
1399	21000
1466	21003
1509	21005
1541	21008
1572	21010
1609	21013
1627	21015
1599	21018
1558	21020
1508	21023
1458	21025
1459	21027
1477	21030
1505	21032
1530	21036
1535	21038
1524	21041
1507	21043
1491	21046
1475	21048
1448	21051
1454	21053
1423	21056
1390	21058
1387	21060
1424	21063
1550	21065
1628	21068
1633	21070
1538	21073
1421	21075
1379	21079
1421	21081
1489	21084
1485	21086
1424	21088
1381	21091
1386	21093
1441	21096
1492	21098
1488	21101
1470	21103
1463	21106
1515	21108
1557	21111
1544	21113
1518	21115
1523	21118
1542	21121
1537	21124
1509	21126
1484	21129
1435	21131
1389	21134
1374	21136
1416	21139
1452	21141
1460	21144
1459	21146
1440	21148
1450	21151
1481	21153
1507	21156
1509	21158
1499	21161
1512	21164
1523	21167
1513	21169
1469	21172
1431	21174
1420	21176
1430	21179
1431	21181
1460	21184
1502	21186
1546	21189
1562	21191
1538	21194
1537	21196
1552	21199
1567	21201
1508	21203
1427	21207
1382	21209
1375	21212
1413	21214
1455	21217
1512	21219
1553	21222
1594	21224
1593	21227
1578	21229
1547	21232
1510	21234
1493	21236
1497	21239
1503	21241
1503	21244
1497	21246
1437	21250
1380	21252
1372	21255
1426	21257
1471	21260
1484	21262
1491	21264
1506	21267
1519	21269
1527	21272
1535	21274
1555	21277
1577	21279
1555	21282
1511	21284
1460	21287
1438	21289
1447	21292
1453	21295
1434	21297
1402	21300
1396	21302
1434	21305
1500	21307
1550	21310
1580	21312
1584	21315
1576	21317
1540	21319
1521	21322
1513	21324
1508	21327
1499	21329
1477	21332
1459	21335
1436	21338
1420	21340
1420	21343
1434	21345
1470	21348
1485	21350
1467	21352
1470	21355
1526	21357
1569	21360
1543	21362
1511	21365
1507	21367
1523	21370
1519	21372
1495	21376
1442	21378
1390	21380
1346	21383
1338	21385
1393	21388
1494	21390
1595	21393
1634	21395
1630	21398
1611	21400
1567	21403
1536	21405
1488	21407
1454	21410
1440	21412
1436	21415
1449	21417
1471	21421
1477	21423
1470	21426
1467	21428
1467	21431
1469	21433
1476	21436
1474	21438
1471	21440
1437	21443
1439	21445
1480	21448
1505	21450
1476	21453
1439	21455
1440	21458
1431	21460
1389	21464
1349	21466
1377	21468
1446	21471
1498	21473
1511	21476
1539	21478
1563	21481
1589	21483
1594	21486
1520	21488
1409	21491
1342	21493
1343	21495
1409	21498
1471	21500
1484	21504
1489	21506
1493	21509
1527	21511
1579	21514
1610	21516
1598	21519
1564	21521
1539	21523
1537	21526
1530	21528
1510	21531
1471	21533
1424	21536
1406	21538
1442	21541
1493	21543
1521	21547
1509	21549
1462	21552
1431	21554
1414	21556
1414	21559
1440	21561
1500	21564
1555	21566
1587	21569
1595	21571
1580	21574
1529	21576
1474	21579
1451	21581
1427	21583
1437	21586
1460	21588
1479	21592
1498	21594
1508	21597
1515	21599
1486	21602
1472	21604
1488	21607
1506	21609
1509	21611
1478	21614
1456	21616
1446	21619
1439	21621
1473	21624
1469	21626
1474	21629
1489	21632
1518	21635
1546	21637
1549	21640
1501	21642
1430	21644
1402	21647
1459	21649
1510	21652
1519	21654
1502	21657
1488	21659
1479	21662
1458	21664
1425	21667
1439	21669
1485	21671
1536	21675
1538	21677
1522	21680
1524	21682
1542	21685
1543	21687
1504	21690
1484	21692
1487	21695
1502	21697
1504	21699
1478	21702
1449	21704
1430	21707
1450	21709
1470	21712
1451	21714
1436	21718
1455	21720
1504	21723
1525	21725
1528	21727
1519	21730
1529	21732
1530	21735
1520	21737
1516	21740
1508	21742
1495	21745
1483	21747
1497	21750
1550	21752
1577	21755
1549	21757
1480	21760
1435	21763
1441	21765
1492	21768
1527	21770
1523	21773
1516	21775
1515	21778
1519	21780
1525	21783
1510	21785
1457	21787
1398	21790
1330	21792
1313	21795
1361	21797
1446	21800
1527	21803
1561	21806
1546	21808
1509	21811
1487	21813
1508	21815
1534	21818
1551	21820
1552	21823
1555	21825
1545	21828
1495	21830
1466	21833
1490	21835
1538	21838
1537	21840
1470	21843
1426	21846
1401	21848
1436	21851
1471	21853
1509	21856
1552	21858
1568	21861
1566	21863
1565	21866
1557	21868
1543	21871
1512	21873
1469	21875
1466	21878
1488	21880
1482	21883
1424	21885
1385	21889
1404	21891
1450	21894
1506	21896
1558	21899
1587	21901
1590	21903
1572	21906
1516	21908
1461	21911
1445	21913
1438	21916
1422	21918
1417	21921
1430	21923
1465	21926
1495	21928
1500	21932
1484	21934
1477	21936
1440	21939
1362	21941
1328	21944
1365	21946
1474	21949
1559	21951
1565	21954
1540	21956
1532	21959
1515	21961
1487	21963
1454	21966
1448	21968
1479	21971
1514	21974
1533	21977
1532	21979
1516	21982
1458	21984
1391	21987
1336	21989
1352	21991
1450	21994
1532	21996
1557	21999
1569	22001
1562	22004
1550	22006
1539	22009
1503	22011
1478	22014
1488	22017
1520	22020
1519	22022
1471	22024
1439	22027
1429	22029
1479	22032
1523	22034
1523	22037
1506	22039
1509	22042
1523	22044
1491	22047
1409	22049
1371	22051
1422	22054
1503	22056
1542	22060
1548	22062
1505	22065
1483	22067
1481	22070
1522	22072
1572	22075
1599	22077
1617	22079
1588	22082
1505	22084
1449	22087
1455	22089
1494	22092
1509	22094
1507	22097
1528	22099
1551	22103
1539	22105
1529	22107
1522	22110
1526	22112
1515	22115
1489	22117
1460	22120
1460	22122
1487	22125
1489	22127
1447	22130
1413	22132
1436	22135
1491	22137
1525	22139
1522	22142
1533	22145
1561	22148
1565	22150
1546	22153
1513	22155
1491	22158
1489	22160
1510	22163
1520	22165
1511	22167
1488	22170
1467	22172
1459	22175
1433	22177
1416	22180
1446	22182
1483	22185
1507	22188
1488	22191
1465	22193
1477	22195
1516	22198
1530	22200
1514	22203
1497	22205
1511	22208
1549	22210
1575	22213
1553	22215
1514	22218
1498	22220
1500	22223
1512	22225
1518	22227
1521	22231
1537	22233
1566	22236
1515	22238
1399	22241
1307	22243
1291	22246
1406	22248
1522	22251
1568	22253
1554	22255
1527	22258
1556	22260
1601	22263
1616	22265
1615	22268
1605	22270
1601	22274
1593	22276
1551	22279
1494	22281
1444	22283
1411	22286
1431	22288
1460	22291
1496	22293
1515	22296
1483	22298
1461	22301
1434	22303
1400	22306
1397	22308
1447	22311
1528	22313
1581	22316
1571	22319
1536	22321
1492	22324
1440	22326
1405	22329
1412	22331
1453	22334
1481	22336
1518	22339
1551	22341
1535	22343
1518	22346
1506	22348
1512	22351
1481	22353
1418	22356
1380	22359
1381	22362
1388	22364
1397	22367
1433	22369
1511	22371
1573	22374
1610	22376
1613	22379
1587	22381
1553	22384
1540	22386
1541	22389
1516	22391
1467	22394
1417	22396
1408	22400
1462	22402
1495	22404
1494	22407
1493	22409
1514	22412
1548	22414
1559	22417
1568	22419
1583	22422
1582	22424
1563	22427
1560	22429
1552	22431
1544	22434
1533	22436
1529	22439
1498	22441
1461	22445
1452	22447
1491	22450
1535	22452
1539	22455
1525	22457
1490	22459
1454	22462
1447	22464
1485	22467
1526	22469
1559	22472
1513	22474
1443	22477
1408	22479
1447	22482
1505	22484
1527	22488
1497	22490
1452	22492
1432	22495
1438	22497
1444	22500
1464	22502
1501	22505
1537	22507
1539	22510
1487	22512
1433	22515
1406	22517
1442	22519
1522	22522
1563	22524
1566	22528
1505	22530
1414	22533
1373	22535
1397	22538
1466	22540
1491	22543
1487	22545
1468	22547
1468	22550
1491	22552
1503	22555
1493	22557
1499	22560
1534	22562
1550	22565
1517	22567
1483	22571
1469	22573
1455	22575
1433	22578
1410	22580
1435	22583
1489	22585
1539	22588
1555	22590
1561	22593
1540	22595
1488	22598
1437	22600
1408	22603
1395	22605
1374	22607
1357	22610
1383	22612
1440	22616
1488	22618
1508	22621
1517	22623
1517	22626
1524	22628
1531	22631
1553	22633
1545	22635
1537	22638
1499	22640
1460	22643
1409	22645
1402	22648
1413	22650
1445	22653
1476	22656
1504	22659
1523	22661
1497	22663
1462	22666
1447	22668
1471	22671
1525	22673
1552	22676
1552	22678
1539	22681
1512	22683
1485	22686
1460	22688
1457	22691
1487	22693
1530	22695
1525	22699
1475	22701
1429	22704
1420	22706
1436	22709
1454	22711
1453	22714
1446	22716
1445	22719
1447	22721
1453	22723
1455	22726
1440	22728
1412	22731
1340	22733
1304	22736
1347	22738
1442	22742
1500	22744
1517	22747
1532	22749
1563	22751
1593	22754
1578	22756
1560	22759
1544	22761
1557	22764
1585	22766
1608	22769
1600	22771
1566	22774
1508	22776
1436	22778
1397	22781
1416	22784
1488	22787
1536	22789
1559	22792
1553	22794
1541	22797
1523	22799
1519	22802
1523	22804
1522	22807
1516	22809
1501	22811
1468	22814
1448	22816
1457	22819
1472	22821
1501	22824
1504	22827
1501	22830
1439	22832
1346	22835
1337	22837
1429	22839
1545	22842
1596	22844
1591	22847
1580	22849
1573	22852
1548	22854
1511	22857
1470	22859
1472	22862
1518	22864
1571	22866
1581	22870
1552	22872
1492	22875
1436	22877
1437	22880
1512	22882
1587	22885
1608	22887
1601	22890
1567	22892
1533	22895
1501	22897
1473	22899
1439	22902
1433	22904
1458	22907
1489	22909
1501	22913
1507	22915
1482	22918
1467	22920
1465	22923
1489	22925
1515	22927
1518	22930
1519	22932
1525	22935
1510	22937
1486	22940
1485	22942
1490	22945
1498	22947
1490	22950
1478	22952
1454	22956
1444	22958
1447	22960
1468	22963
1490	22965
1491	22968
1461	22970
1441	22973
1450	22975
1487	22978
1532	22980
1550	22983
1543	22985
1516	22987
1489	22990
1477	22992
1467	22995
1467	22998
1465	23001
1476	23003
1470	23006
1450	23008
1414	23011
1388	23013
1383	23015
1423	23018
1475	23020
1502	23023
1500	23025
1471	23028
1433	23030
1424	23033
1418	23035
1425	23038
1441	23041
1449	23043
1476	23046
1492	23048
1516	23051
1502	23053
1496	23056
1519	23058
1544	23061
1544	23063
1517	23066
1496	23068
1483	23071
1419	23073
1358	23075
1342	23078
1386	23080
1456	23084
1505	23086
1525	23089
1526	23091
1531	23094
1487	23096
1423	23099
1363	23101
1372	23103
1411	23106
1470	23108
1510	23111
1518	23113
1510	23116
1506	23118
1514	23121
1523	23123
1532	23127
1557	23129
1579	23131
1560	23134
1529	23136
1495	23139
1478	23141
1469	23144
1482	23146
1514	23149
1557	23151
1557	23154
1511	23156
1465	23159
1486	23161
1550	23163
1590	23166
1588	23169
1558	23172
1527	23174
1525	23177
1533	23179
1553	23182
1590	23184
1639	23187
1654	23189
1639	23191
1613	23194
1577	23196
1520	23199
1487	23201
1480	23204
1508	23206
1514	23209
1485	23212
1417	23215
1364	23217
1370	23219
1454	23222
1492	23224
1477	23227
1461	23229
1515	23232
1563	23234
1581	23237
1552	23239
1522	23242
1524	23244
1538	23246
1527	23249
1468	23251
1363	23255
1344	23257
1419	23260
1557	23262
1637	23265
1634	23267
1609	23270
1588	23272
1568	23275
1537	23277
1495	23279
1484	23282
1504	23284
1531	23287
1543	23289
1539	23292
1509	23294
1426	23298
1330	23300
1300	23303
1361	23305
1465	23307
1538	23310
1552	23312
1550	23315
1501	23317
1443	23320
1425	23322
1461	23325
1529	23327
1569	23330
1515	23332
1431	23334
1403	23337
1454	23340
1533	23343
1534	23345
1529	23348
1574	23350
1627	23353
1630	23355
1589	23358
1535	23360
1504	23363
1487	23365
1474	23367
1446	23370
1383	23372
1349	23375
1334	23377
1376	23380
1434	23383
1493	23386
1529	23388
1566	23391
1577	23393
1574	23395
1540	23398
1500	23400
1471	23403
1471	23405
1502	23408
1534	23410
1547	23413
1529	23415
1483	23418
1434	23420
1416	23422
1428	23426
1435	23428
1442	23431
1431	23433
1417	23436
1412	23438
1424	23441
1456	23443
1500	23446
1514	23448
1517	23451
1535	23453
1570	23455
1598	23458
1600	23460
1585	23463
1561	23465
1527	23469
1501	23471
1469	23474
1456	23476
1466	23479
1464	23481
1419	23483
1323	23486
1263	23488
1294	23491
1398	23493
1490	23496
1538	23498
1572	23501
1607	23503
1614	23506
1577	23508
1528	23511
1488	23514
1473	23516
1478	23519
1491	23521
1512	23524
1514	23526
1479	23529
1425	23531
1405	23534
1420	23536
1462	23539
1480	23541
1433	23543
1379	23546
1332	23548
1347	23552
1397	23554
1446	23557
1496	23559
1507	23562
1505	23564
1514	23567
1527	23569
1527	23571
1484	23574
1445	23576
1419	23579
1419	23581
1467	23584
1538	23586
1572	23589
1556	23591
1504	23595
1466	23597
1444	23599
1411	23602
1387	23604
1410	23607
1489	23609
1571	23612
1601	23614
1590	23617
1561	23619
1537	23622
1508	23624
1437	23626
1368	23629
1336	23631
1370	23634
1426	23636
1500	23640
1550	23642
1573	23645
1549	23647
1523	23650
1496	23652
1464	23655
1437	23657
1459	23659
1502	23662
1551	23664
1559	23667
1560	23669
1541	23672
1511	23674
1491	23677
1476	23680
1486	23683
1456	23685
1410	23687
1397	23690
1432	23692
1475	23695
1467	23697
1452	23700
1476	23702
1517	23705
1548	23707
1562	23710
1553	23712
1553	23714
1575	23717
1578	23719
1515	23723
1425	23725
1377	23728
1431	23730
1474	23733
1472	23735
1477	23738
1518	23740
1589	23743
1632	23745
1621	23747
1585	23750
1554	23752
1531	23755
1520	23757
1509	23760
1496	23762
1447	23766
1423	23768
1413	23771
1421	23773
1442	23775
1456	23778
1466	23780
1481	23783
1497	23785
1499	23788
1500	23790
1514	23793
1532	23795
1559	23798
1563	23800
1557	23802
1539	23805
1499	23808
1455	23811
1440	23813
1457	23816
1476	23818
1488	23821
1495	23823
1467	23826
1402	23828
1377	23830
1397	23833
1450	23835
1511	23838
1527	23840
1470	23843
1441	23845
1447	23848
1501	23851
1539	23854
1549	23856
1549	23859
1557	23861
1568	23863
1569	23866
1555	23868
1530	23871
1421	23873
1360	23876
1340	23878
1413	23881
1506	23883
1535	23886
1516	23888
1496	23890
1481	23894
1471	23896
1465	23899
1462	23901
1454	23904
1423	23906
1410	23909
1423	23911
1470	23914
1500	23916
1502	23918
1484	23921
1477	23923
1497	23926
1512	23928
1527	23931
1534	23933
1525	23937
1508	23939
1482	23942
1414	23944
1386	23947
1379	23949
1387	23951
1411	23954
1415	23956
1468	23959
1528	23961
1570	23964
1591	23966
1594	23969
1592	23971
1587	23974
1557	23976
1514	23979
1476	23982
1444	23984
1431	23987
1431	23989
1462	23992
1505	23994
1529	23997
1532	23999
1498	24002
1471	24004
1463	24006
1451	24009
1438	24011
1454	24014
1467	24016
1489	24019
1514	24022
1537	24025
1548	24027
1542	24030
1514	24032
1474	24034
1452	24037
1441	24039
1461	24042
1495	24044
1513	24047
1522	24049
1520	24052
1510	24054
1527	24057
1528	24059
1521	24062
1501	24065
1483	24067
1467	24070
1472	24072
1494	24075
1477	24077
1437	24080
1381	24082
1339	24085
1369	24087
1428	24090
1496	24092
1530	24094
1517	24097
1494	24099
1478	24102
1449	24104
1425	24108
1419	24110
1418	24113
1390	24115
1365	24118
1392	24120
1442	24122
1470	24125
1450	24127
1407	24130
1392	24132
1421	24135
1465	24137
1497	24140
1502	24142
1495	24145
1503	24147
1525	24151
1521	24153
1495	24155
1481	24158
1477	24160
1500	24163
1544	24165
1559	24168
1547	24170
1533	24173
1523	24175
1513	24178
1523	24180
1534	24182
1519	24185
1505	24187
1506	24190
1457	24193
1398	24196
1377	24198
1408	24201
1482	24203
1523	24206
1526	24208
1493	24210
1460	24213
1437	24215
1474	24218
1533	24220
1578	24223
1586	24225
1568	24228
1532	24230
1507	24233
1457	24236
1416	24239
1376	24241
1373	24243
1428	24246
1497	24248
1548	24251
1580	24253
1565	24256
1523	24258
1471	24261
1441	24263
1442	24266
1477	24268
1491	24270
1480	24273
1455	24275
1439	24279
1404	24281
1394	24284
1415	24286
1482	24289
1531	24291
1558	24294
1574	24296
1564	24298
1531	24301
1500	24303
1491	24306
1463	24308
1445	24311
1447	24313
1465	24316
1485	24318
1481	24322
1463	24324
1457	24326
1465	24329
1483	24331
1519	24334
1557	24336
1555	24339
1516	24341
1448	24344
1391	24346
1391	24349
1436	24351
1513	24354
1548	24356
1531	24358
1496	24361
1495	24364
1526	24367
1565	24369
1578	24372
1579	24374
1566	24377
1435	24379
1338	24382
1325	24384
1385	24386
1466	24389
1498	24391
1529	24394
1562	24396
1576	24399
1573	24401
1547	24404
1525	24407
1516	24410
1525	24412
1522	24414
1487	24417
1433	24419
1423	24422
1439	24424
1494	24427
1560	24429
1606	24432
1628	24434
1615	24437
1581	24439
1515	24442
1436	24444
1420	24446
1455	24450
1522	24452
1580	24455
1591	24457
1553	24460
1518	24462
1502	24465
1520	24467
1588	24470
1601	24472
1529	24474
1465	24477
1462	24479
1507	24482
1565	24484
1552	24487
1463	24489
1399	24493
1409	24495
1483	24498
1549	24500
1560	24502
1539	24505
1501	24507
1462	24510
1410	24512
1365	24515
1315	24517
1314	24520
1372	24522
1467	24525
1545	24527
1575	24530
1571	24532
1516	24535
1472	24538
1472	24540
1474	24543
1473	24545
1444	24548
1432	24550
1425	24553
1420	24555
1430	24558
1442	24560
1473	24562
1504	24565
1530	24567
1545	24570
1552	24572
1537	24576
1507	24578
1478	24581
1439	24583
1405	24586
1344	24588
1320	24590
1349	24593
1391	24595
1435	24598
1456	24600
1481	24603
1487	24605
1487	24608
1524	24610
1583	24613
1602	24615
1583	24619
1513	24621
1413	24623
1376	24626
1402	24628
1483	24631
1553	24633
1573	24636
1563	24638
1538	24641
1491	24643
1452	24646
1435	24648
1464	24650
1524	24653
1577	24655
1563	24658
1507	24660
1433	24664
1418	24666
1433	24669
1444	24671
1450	24674
1467	24676
1504	24678
1523	24681
1532	24683
1519	24686
1502	24688
1489	24691
1484	24693
1474	24696
1487	24698
1508	24701
1532	24704
1551	24707
1545	24709
1500	24711
1440	24714
1391	24716
1386	24719
1410	24721
1444	24724
1465	24726
1478	24729
1458	24731
1477	24734
1503	24736
1508	24738
1494	24741
1479	24743
1480	24747
1503	24749
1532	24752
1565	24754
1596	24757
1588	24759
1569	24762
1566	24764
1558	24766
1526	24769
1462	24771
1412	24774
1403	24776
1446	24779
1494	24781
1515	24784
1517	24786
1516	24790
1513	24792
1506	24794
1502	24797
1498	24799
1503	24802
1510	24804
1506	24807
1487	24809
1472	24812
1469	24814
1486	24817
1496	24819
1499	24822
1483	24824
1441	24826
1411	24829
1411	24832
1451	24835
1491	24837
1506	24840
1503	24842
1489	24845
1473	24847
1452	24850
1430	24852
1424	24854
1445	24857
1449	24859
1433	24862
1433	24864
1463	24867
1517	24869
1537	24872
1453	24875
1382	24878
1362	24880
1409	24882
1486	24885
1479	24887
1468	24890
1468	24892
1497	24895
1532	24897
1531	24900
1484	24902
1441	24905
1431	24907
1458	24910
1497	24912
1515	24914
1511	24918
1496	24920
1492	24923
1489	24925
1490	24928
1504	24930
1503	24933
1446	24935
1385	24938
1355	24940
1391	24942
1464	24945
1513	24947
1528	24950
1489	24952
1454	24955
1428	24957
1433	24961
1459	24963
1497	24966
1522	24968
1536	24970
1525	24973
1495	24975
1434	24978
1389	24980
1399	24983
1477	24985
1574	24988
1603	24990
1596	24993
1581	24995
1582	24997
1595	25000
1562	25003
1488	25006
1436	25008
1431	25011
1432	25013
1439	25016
1472	25018
1548	25021
1625	25023
1651	25026
1619	25028
1573	25030
1538	25033
1515	25035
1504	25038
1478	25040
1463	25043
1463	25046
1479	25049
1523	25051
1559	25054
1558	25056
1494	25058
1444	25061
1443	25063
1453	25066
1472	25068
1479	25071
1515	25073
1534	25076
1535	25078
1535	25081
1537	25083
1538	25085
1531	25089
1543	25091
1565	25094
1557	25096
1517	25099
1426	25101
1374	25104
1399	25106
1478	25109
1548	25111
1571	25114
1580	25116
1594	25118
1539	25121
1476	25123
1402	25126
1383	25128
1436	25132
1486	25134
1523	25137
1542	25139
1547	25142
1524	25144
1491	25146
1481	25149
1513	25151
1564	25154
1586	25156
1560	25159
1521	25161
1498	25164
1489	25166
1492	25169
1491	25171
1487	25174
1478	25177
1472	25179
1467	25182
1457	25184
1432	25187
1398	25189
1369	25192
1313	25194
1275	25197
1294	25199
1398	25202
1516	25204
1607	25206
1610	25209
1570	25211
1531	25214
1505	25217
1484	25220
1479	25222
1492	25225
1515	25227
1504	25230
1437	25232
1355	25234
1332	25237
1386	25239
1483	25242
1538	25244
1540	25247
1494	25249
1474	25252
1507	25254
1579	25257
1603	25260
1585	25262
1565	25265
1558	25267
1552	25270
1483	25272
1363	25275
1297	25277
1341	25280
1484	25282
1582	25285
1646	25287
1688	25289
1721	25292
1679	25294
1580	25297
1478	25299
1411	25303
1414	25305
1464	25308
1520	25310
1562	25313
1563	25315
1522	25318
1474	25320
1445	25322
1416	25325
1393	25327
1387	25330
1380	25332
1416	25335
1467	25337
1519	25340
1534	25342
1485	25346
1443	25348
1424	25350
1452	25353
1473	25355
1468	25358
1454	25360
1450	25363
1413	25365
1371	25368
1372	25370
1419	25373
1470	25375
1494	25377
1486	25380
1482	25382
1488	25385
1462	25388
1426	25391
1417	25393
1429	25396
1457	25398
1478	25401
1477	25403
1461	25406
1446	25408
1444	25410
1461	25413
1470	25415
1492	25418
1510	25420
1522	25423
1523	25425
1506	25428
1475	25431
1446	25434
1417	25436
1425	25438
1470	25441
1525	25443
1546	25446
1534	25448
1504	25451
1487	25453
1494	25456
1510	25458
1489	25461
1464	25463
1453	25465
1462	25468
1480	25470
1491	25474
1492	25476
1480	25479
1465	25481
1481	25484
1500	25486
1522	25489
1519	25491
1497	25494
1459	25496
1393	25498
1347	25501
1348	25503
1405	25506
1466	25508
1494	25511
1459	25513
1405	25517
1389	25519
1373	25522
1407	25524
1453	25526
1537	25529
1602	25531
1614	25534
1577	25536
1530	25539
1495	25541
1453	25544
1412	25546
1403	25549
1448	25551
1483	25553
1436	25556
1374	25559
1371	25562
1448	25564
1511	25567
1562	25569
1538	25572
1525	25574
1549	25577
1584	25579
1607	25581
1611	25584
1572	25586
1531	25589
1455	25591
1389	25594
1374	25596
1390	25600
1433	25602
1467	25605
1493	25607
1524	25610
1531	25612
1517	25614
1500	25617
1486	25619
1489	25622
1511	25624
1537	25627
1552	25629
1548	25632
1517	25634
1490	25637
1485	25639
1499	25641
1509	25645
1496	25647
1484	25650
1477	25652
1489	25655
1502	25657
1500	25660
1476	25662
1451	25665
1395	25667
1325	25669
1293	25672
1339	25674
1399	25677
1411	25679
1403	25682
1417	25684
1485	25688
1540	25690
1551	25693
1546	25695
1542	25698
1517	25700
1489	25702
1479	25705
1487	25707
1452	25710
1441	25712
1469	25715
1503	25717
1516	25720
1518	25722
1528	25725
1594	25728
1635	25730
1621	25733
1567	25735
1526	25738
1506	25740
1487	25743
1492	25745
1477	25748
1454	25750
1426	25753
1399	25755
1402	25757
1441	25760
1523	25762
1574	25765
1588	25767
1575	25771
1543	25773
1556	25776
1579	25778
1591	25781
1581	25783
1536	25785
1474	25788
1403	25790
1355	25793
1384	25795
1469	25798
1560	25800
1605	25803
1581	25805
1543	25808
1470	25810
1438	25814
1472	25816
1565	25818
1639	25821
1631	25823
1574	25826
1509	25828
1475	25831
1505	25833
1546	25836
1498	25838
1432	25841
1419	25843
1457	25845
1543	25848
1588	25850
1567	25853
1510	25856
1440	25859
1399	25861
1415	25864
1484	25866
1552	25869
1558	25871
