1493	2
1492	5
1491	7
1491	9
1491	11
1494	14
1496	16
1497	18
1497	21
1497	23
1495	25
1495	27
1496	30
1498	32
1499	34
1499	37
1498	39
1497	41
1497	45
1495	47
1494	49
1493	51
1494	54
1494	56
1493	58
1491	61
1491	63
1493	65
1495	68
1496	70
1495	72
1495	75
1495	77
1496	79
1496	81
1497	84
1497	87
1496	89
1496	92
1498	94
1500	96
1499	99
1496	101
1494	103
1494	106
1495	108
1495	110
1495	113
1493	115
1492	117
1491	120
1491	122
1491	124
1491	128
1492	130
1491	132
1489	135
1488	137
1488	140
1490	142
1492	144
1492	147
1494	149
1497	151
1500	154
1501	156
1501	158
1500	161
1499	163
1497	165
1495	168
1493	171
1492	173
1492	176
1492	178
1491	181
1490	183
1490	185
1490	188
1490	190
1490	192
1491	195
1492	197
1492	199
1492	202
1489	204
1487	206
1487	209
1489	211
1491	215
1492	217
1493	219
1495	222
1498	224
1498	226
1497	229
1496	231
1495	233
1493	236
1492	238
1491	240
1491	243
1490	245
1490	247
1491	250
1491	252
1492	256
1493	258
1494	260
1495	263
1496	265
1495	267
1495	270
1496	272
1497	274
1495	277
1494	279
1492	281
1492	284
1492	286
1492	288
1491	291
1490	293
1490	296
1489	299
1490	301
1491	304
1491	306
1492	308
1493	311
1494	313
1494	315
1495	318
1496	320
1495	322
1494	325
1493	327
1493	330
1493	332
1494	334
1494	337
1495	339
1494	342
1494	345
1495	347
1494	349
1495	352
1498	354
1500	356
1499	359
1498	361
1496	363
1494	366
1492	368
1492	371
1492	373
1491	375
1492	378
1491	380
1492	382
1493	386
1495	388
1498	390
1498	393
1494	395
1490	397
1490	400
1491	402
1491	404
1492	407
1492	409
1491	412
1492	414
1492	416
1492	419
1493	421
1493	423
1492	427
1489	429
1489	431
1490	434
1492	436
1492	438
1493	441
1493	443
1493	445
1493	448
1493	450
1493	453
1493	455
1493	457
1495	460
1495	462
1495	464
1493	467
1492	470
1492	472
1492	475
1493	477
1493	479
1494	482
1494	484
1495	487
1495	489
1495	491
1495	494
1495	496
1495	498
1495	501
1495	503
1495	505
1495	508
1497	510
1500	513
1501	516
1499	518
1497	520
1497	523
1496	525
1495	528
1495	530
1494	532
1494	535
1494	537
1494	539
1493	542
1493	544
1493	546
1493	549
1493	551
1493	553
1493	557
1492	559
1492	562
1492	564
1492	566
1491	569
1491	571
1493	573
1495	576
1496	578
1495	580
1497	583
1496	585
1494	587
1494	590
1494	592
1495	594
1495	598
1494	600
1495	603
1496	605
1496	607
1495	610
1494	612
1493	614
1492	617
1492	619
1494	621
1494	624
1494	626
1495	628
1497	631
1499	633
1499	635
1498	638
1496	641
1495	644
1494	646
1495	648
1498	651
1499	653
1498	655
1495	658
1495	660
1495	662
1494	665
1493	667
1494	669
1494	672
1493	674
1492	677
1490	679
1490	681
1492	685
1494	687
1495	689
1495	692
1494	694
1492	696
1492	699
1492	701
1493	703
1494	706
1495	708
1496	710
1496	713
1496	715
1495	718
1496	720
1496	722
1494	726
1491	728
1491	730
1494	733
1496	735
1498	737
1498	740
1497	742
1496	744
1495	747
1495	749
1496	751
1497	754
1496	756
1497	759
1497	761
1497	763
1497	766
1499	769
1499	771
1500	774
1501	776
1502	778
1503	781
1502	783
1500	785
1498	788
1497	790
1497	793
1497	795
1498	797
1498	800
1499	802
1499	804
1499	807
1498	809
1499	812
1499	815
1499	817
1499	819
1499	822
1499	824
1499	826
1499	829
1498	831
1498	834
1498	836
1497	838
1497	841
1496	843
1496	845
1496	848
1496	850
1497	852
1502	856
1505	858
1505	860
1501	863
1498	865
1497	867
1498	870
1497	872
1497	875
1496	877
1496	879
1496	882
1496	884
1495	886
1495	889
1494	891
1494	893
1493	897
1493	899
1494	901
1494	904
1494	906
1495	908
1496	911
1497	913
1497	916
1497	918
1496	920
1494	923
1492	925
1493	927
1497	930
1500	932
1501	934
1499	937
1495	940
1494	942
1494	945
1494	947
1494	950
1494	952
1495	954
1495	957
1494	959
1495	961
1495	964
1496	966
1496	968
1496	971
1496	973
1497	975
1498	978
1499	980
1499	983
1498	986
1495	988
1494	991
1494	993
1495	995
1496	998
1497	1000
1496	1002
1494	1005
1494	1007
1494	1010
1498	1012
1500	1014
1498	1017
1496	1019
1495	1022
1496	1025
1496	1027
1496	1030
1495	1032
1496	1035
1498	1037
1499	1039
1499	1042
1497	1044
1497	1047
1497	1049
1498	1051
1497	1054
1496	1056
1496	1059
1497	1061
1497	1063
1498	1067
1498	1069
1496	1072
1495	1074
1495	1077
1498	1079
1499	1081
1498	1084
1497	1086
1497	1089
1496	1091
1496	1093
1495	1096
1495	1098
1494	1101
1494	1103
1496	1105
1499	1108
1499	1111
1497	1114
1494	1116
1494	1118
1494	1121
1494	1123
1494	1126
1494	1128
1495	1130
1496	1133
1496	1135
1495	1138
1495	1140
1493	1142
1493	1145
1494	1147
1497	1150
1499	1153
1496	1155
1495	1158
1495	1160
1496	1163
1496	1165
1495	1168
1494	1170
1494	1172
1494	1175
1494	1177
1494	1180
1494	1182
1494	1184
1495	1187
1498	1189
1499	1192
1499	1195
1498	1197
1498	1200
1498	1202
1498	1205
1497	1207
1494	1209
1492	1212
1491	1214
1493	1217
1495	1219
1495	1221
1496	1224
1498	1226
1498	1229
1497	1231
1497	1233
1495	1236
1495	1239
1494	1242
1495	1244
1495	1246
1496	1249
1497	1251
1497	1254
1496	1256
1495	1259
1496	1261
1498	1263
1499	1266
1499	1268
1498	1271
1498	1273
1497	1275
1496	1278
1496	1281
1495	1284
1494	1286
1492	1288
1494	1291
1496	1293
1497	1296
1497	1298
1497	1300
1497	1303
1497	1305
1497	1308
1497	1310
1496	1312
1496	1315
1495	1317
1497	1320
1499	1323
1499	1325
1497	1328
1495	1330
1494	1333
1493	1335
1493	1337
1493	1340
1492	1342
1492	1345
1492	1347
1491	1349
1489	1352
1487	1354
1484	1357
1484	1359
1488	1361
1490	1364
1492	1367
1493	1370
1494	1372
1495	1375
1494	1377
1494	1379
1494	1382
1495	1384
1495	1387
1494	1389
1493	1391
1492	1394
1492	1396
1492	1399
1492	1401
1493	1403
1493	1406
1492	1409
1494	1412
1495	1414
1495	1416
1494	1419
1494	1421
1492	1424
1492	1426
1491	1428
1491	1431
1492	1433
1495	1436
1495	1438
1492	1440
1490	1443
1489	1445
1490	1448
1491	1451
1491	1453
1492	1456
1492	1458
1492	1461
1491	1463
1491	1466
1491	1468
1492	1470
1492	1473
1493	1475
1493	1478
1493	1480
1492	1482
1492	1485
1493	1487
1495	1490
1496	1492
1496	1495
1495	1498
1495	1500
1496	1503
1495	1505
1495	1507
1494	1510
1495	1512
1495	1515
1494	1517
1494	1519
1494	1522
1494	1524
1494	1527
1495	1529
1495	1531
1495	1534
1494	1537
1493	1540
1494	1542
1494	1544
1494	1547
1494	1549
1494	1552
1494	1554
1494	1557
1493	1559
1492	1561
1492	1564
1492	1566
1492	1569
1492	1571
1491	1573
1490	1576
1491	1579
1494	1582
1495	1584
1496	1586
1499	1589
1503	1591
1504	1594
1501	1596
1498	1598
1495	1601
1494	1603
1494	1606
1494	1608
1494	1610
1494	1613
1494	1615
1494	1618
1495	1620
1495	1623
1495	1626
1496	1628
1496	1631
1494	1633
1493	1636
1492	1638
1492	1640
1492	1643
1492	1645
1490	1648
1491	1650
1491	1652
1492	1655
1493	1657
1493	1660
1493	1662
1493	1665
1492	1668
1493	1670
1493	1673
1493	1675
1493	1677
1492	1680
1493	1682
1494	1685
1494	1687
1494	1689
1494	1692
1494	1694
1493	1697
1492	1699
1491	1701
1491	1704
1490	1707
1490	1710
1491	1712
1493	1714
1495	1717
1496	1719
1498	1722
1501	1724
1502	1726
1499	1729
1497	1731
1496	1734
1496	1736
1496	1739
1495	1741
1494	1743
1494	1746
1494	1748
1494	1752
1495	1754
1495	1756
1495	1759
1496	1761
1496	1764
1495	1766
1495	1768
1495	1771
1496	1773
1496	1776
1496	1778
1495	1780
1494	1783
1491	1785
1490	1788
1488	1790
1490	1793
1493	1796
1495	1798
1495	1801
1495	1803
1495	1805
1495	1808
1495	1810
1495	1813
1495	1815
1494	1817
1493	1820
1493	1822
1494	1825
1495	1827
1496	1830
1496	1832
1497	1835
1498	1838
1497	1840
1496	1843
1494	1845
1492	1847
1492	1850
1492	1852
1492	1855
1493	1857
1494	1859
1494	1862
1492	1864
1491	1867
1492	1869
1495	1871
1498	1874
1498	1876
1498	1880
1499	1882
1501	1884
1503	1887
1504	1889
1503	1892
1500	1894
1499	1896
1497	1899
1497	1901
1496	1904
1495	1906
1494	1908
1493	1911
1493	1913
1493	1916
1494	1918
1494	1922
1495	1924
1494	1926
1494	1929
1494	1931
1494	1934
1494	1936
1495	1938
1496	1941
1496	1943
1496	1946
1495	1948
1495	1950
1494	1953
1493	1955
1492	1958
1493	1960
1496	1963
1498	1966
1497	1968
1497	1971
1499	1973
1500	1975
1500	1978
1498	1980
1497	1983
1496	1985
1496	1987
1496	1990
1498	1992
1500	1995
1501	1997
1500	1999
1499	2002
1498	2004
1498	2008
1497	2010
1496	2013
1496	2015
1496	2017
1495	2020
1495	2022
1495	2025
1494	2027
1493	2029
1492	2032
1491	2034
1491	2037
1492	2039
1493	2041
1493	2044
1493	2046
1492	2050
1490	2052
1489	2054
1491	2057
1493	2059
1495	2062
1495	2064
1496	2066
1496	2069
1495	2071
1495	2074
1495	2076
1496	2078
1496	2081
1496	2083
1495	2086
1494	2088
1495	2091
1494	2094
1494	2096
1493	2099
1493	2101
1494	2104
1494	2106
1494	2108
1494	2111
1493	2113
1493	2116
1493	2118
1493	2120
1494	2123
1495	2125
1495	2128
1496	2130
1497	2132
1497	2136
1497	2138
1496	2141
1495	2143
1495	2145
1494	2148
1494	2150
1494	2153
1494	2155
1494	2157
1493	2160
1492	2162
1492	2165
1492	2167
1492	2169
1492	2172
1492	2174
1492	2178
1492	2180
1492	2183
1493	2185
1493	2187
1493	2190
1493	2192
1492	2195
1492	2197
1492	2199
1492	2202
1494	2204
1495	2207
1496	2209
1496	2211
1495	2214
1494	2216
1493	2220
1495	2222
1498	2224
1498	2227
1499	2229
1499	2232
1501	2234
1502	2236
1500	2239
1498	2241
1497	2244
1496	2246
1495	2248
1495	2251
1495	2253
1495	2256
1495	2258
1495	2262
1495	2264
1495	2266
1496	2269
1495	2271
1494	2274
1494	2276
1494	2278
1495	2281
1498	2283
1498	2286
1497	2288
1494	2290
1493	2293
1493	2295
1494	2298
1494	2300
1494	2302
1494	2306
1494	2308
1495	2311
1495	2313
1495	2315
1495	2318
1495	2320
1494	2323
1494	2325
1493	2327
1492	2330
1492	2332
1494	2335
1495	2337
1495	2340
1494	2342
1491	2344
1491	2348
1492	2350
1493	2353
1493	2355
1493	2357
1493	2360
1494	2362
1495	2365
1496	2367
1497	2369
1495	2372
1493	2374
1492	2377
1492	2379
1492	2381
1492	2384
1493	2386
1493	2390
1494	2392
1494	2394
1493	2397
1490	2399
1488	2402
1487	2404
1489	2406
1491	2409
1492	2411
1492	2414
1492	2416
1492	2418
1493	2421
1495	2423
1495	2426
1495	2428
1493	2432
1492	2434
1491	2436
1492	2439
1493	2441
1495	2444
1495	2446
1496	2448
1497	2451
1497	2453
1498	2456
1498	2458
1498	2460
1499	2463
1499	2465
1499	2468
1500	2470
1500	2472
1500	2476
1500	2478
1500	2481
1500	2483
1500	2485
1501	2488
1501	2490
1501	2493
1499	2495
1498	2497
1497	2500
1497	2502
1496	2505
1496	2507
1493	2510
1490	2512
1488	2514
1489	2518
1491	2520
1493	2523
1494	2525
1494	2527
1495	2530
1496	2532
1497	2535
1497	2537
1498	2539
1498	2542
1498	2544
1498	2547
1497	2549
1496	2551
1496	2554
1495	2556
1495	2560
1495	2562
1495	2564
1496	2567
1497	2569
1497	2572
1497	2574
1497	2576
1497	2579
1496	2581
1493	2584
1492	2586
1491	2589
1491	2591
1492	2593
1493	2596
1494	2598
1494	2601
1495	2604
1495	2606
1496	2609
1498	2611
1499	2614
1499	2616
1499	2618
1498	2621
1498	2623
1496	2626
1493	2628
1491	2630
1491	2633
1493	2635
1495	2638
1496	2640
1495	2642
1494	2646
1495	2648
1497	2651
1499	2653
1498	2655
1497	2658
1497	2660
1497	2663
1497	2665
1498	2667
1500	2670
1503	2672
1505	2675
1505	2677
1502	2679
1498	2682
1495	2684
1494	2688
1494	2690
1496	2693
1496	2695
1497	2697
1497	2700
1498	2702
1499	2705
1499	2707
1498	2709
1497	2712
1498	2714
1499	2717
1499	2719
1498	2721
1496	2724
1494	2726
1494	2729
1493	2732
1493	2734
1492	2737
1493	2739
1494	2742
1494	2744
1496	2746
1496	2749
1496	2751
1496	2754
1495	2756
1495	2758
1494	2761
1494	2763
1494	2766
1495	2768
1497	2770
1497	2774
1495	2776
1493	2779
1492	2781
1495	2784
1497	2786
1497	2788
1496	2791
1496	2793
1496	2796
1496	2798
1497	2800
1498	2803
1499	2805
1499	2808
1498	2810
1497	2812
1494	2816
1494	2818
1495	2821
1495	2823
1493	2825
1490	2828
1489	2830
1491	2833
1495	2835
1497	2837
1495	2840
1494	2842
1493	2845
1494	2847
1495	2849
1494	2852
1492	2854
1492	2857
1492	2860
1493	2863
1494	2865
1494	2867
1492	2870
1491	2872
1490	2875
1489	2877
1489	2879
1491	2882
1492	2884
1491	2887
1490	2889
1490	2891
1490	2894
1491	2896
1492	2899
1492	2902
1493	2904
1493	2907
1492	2909
1491	2912
1490	2914
1492	2916
1493	2919
1496	2921
1499	2924
1500	2926
1498	2928
1496	2931
1495	2933
1494	2936
1492	2938
1491	2940
1491	2944
1491	2946
1491	2949
1492	2951
1492	2954
1492	2956
1492	2958
1492	2961
1492	2963
1492	2966
1493	2968
1494	2970
1495	2973
1495	2975
1494	2978
1493	2980
1491	2982
1492	2985
1494	2988
1495	2991
1494	2993
1494	2995
1494	2998
1495	3000
1495	3003
1496	3005
1496	3007
1496	3010
1495	3012
1494	3015
1493	3017
1493	3019
1495	3022
1496	3024
1496	3027
1497	3030
1497	3032
1497	3035
1498	3037
1500	3040
1501	3042
1500	3045
1497	3047
1497	3049
1497	3052
1498	3054
1498	3057
1498	3059
1499	3061
1499	3064
1499	3066
1499	3069
1498	3072
1497	3074
1497	3077
1497	3079
1497	3082
1496	3084
1496	3086
1496	3089
1497	3091
1498	3094
1500	3096
1502	3098
1503	3101
1501	3103
1499	3106
1496	3108
1494	3110
1491	3113
1491	3116
1494	3119
1498	3121
1500	3124
1500	3126
1499	3128
1497	3131
1495	3133
1493	3136
1492	3138
1493	3140
1493	3143
1493	3145
1495	3148
1496	3150
1496	3152
1496	3155
1496	3158
1497	3161
1496	3163
1496	3165
1496	3168
1497	3170
1498	3173
1499	3175
1498	3177
1495	3180
1492	3182
1491	3185
1492	3187
1495	3190
1496	3192
1496	3194
1496	3197
1496	3200
1495	3203
1496	3205
1497	3207
1497	3210
1497	3212
1498	3215
1498	3217
1498	3219
1496	3222
1494	3224
1491	3227
1491	3229
1493	3231
1494	3234
1494	3236
1493	3239
1492	3241
1491	3244
1489	3247
1488	3249
1488	3252
1490	3254
1494	3256
1498	3259
1500	3261
1501	3264
1500	3266
1498	3268
1497	3271
1496	3273
1496	3276
1496	3278
1495	3281
1496	3283
1497	3286
1499	3289
1501	3291
1502	3294
1502	3296
1503	3298
1504	3301
1503	3303
1502	3306
1500	3308
1498	3310
1496	3313
1497	3315
1501	3318
1504	3320
1505	3322
1505	3325
1505	3328
1505	3331
1505	3333
1506	3335
1506	3338
1505	3340
1505	3343
1505	3345
1505	3347
1505	3350
1505	3352
1505	3355
1505	3357
1505	3360
1505	3362
1505	3364
1503	3367
1502	3369
1503	3373
1505	3375
1507	3377
1505	3380
1504	3382
1502	3385
1501	3387
1500	3389
1498	3392
1496	3394
1497	3397
1498	3399
1500	3401
1503	3404
1506	3406
1508	3409
1507	3411
1506	3414
1505	3417
1505	3419
1503	3422
1503	3424
1502	3426
1500	3429
1500	3431
1502	3434
1503	3436
1505	3438
1506	3441
1508	3443
1509	3446
1508	3448
1509	3451
1508	3453
1509	3456
1508	3459
1507	3461
1505	3464
1503	3466
1501	3468
1503	3471
1505	3473
1506	3476
1505	3478
1504	3480
1503	3483
1502	3485
1501	3488
1500	3490
1498	3492
1494	3495
1491	3497
1493	3501
1499	3503
1504	3505
1504	3508
1503	3510
1502	3513
1502	3515
1502	3518
1504	3520
1506	3522
1506	3525
1505	3527
1502	3530
1499	3532
1499	3534
1499	3537
1500	3539
1500	3543
1500	3545
1499	3547
1498	3550
1497	3552
1497	3555
1495	3557
1492	3559
1491	3562
1490	3564
1492	3567
1493	3569
1494	3571
1494	3574
1492	3576
1490	3579
1489	3581
1488	3584
1489	3587
1490	3589
1491	3592
1490	3594
1490	3596
1491	3599
1492	3601
1493	3604
1494	3606
1495	3609
1495	3611
1493	3613
1488	3616
1486	3618
1485	3621
1486	3623
1487	3625
1486	3629
1485	3631
1484	3634
1485	3636
1487	3638
1486	3641
1485	3643
1484	3646
1483	3648
1482	3650
1483	3653
1484	3655
1485	3658
1485	3660
1485	3662
1485	3665
1486	3667
1486	3671
1485	3673
1485	3675
1484	3678
1483	3680
1484	3683
1482	3685
1480	3687
1478	3690
1479	3692
1482	3695
1483	3697
1483	3700
1483	3702
1483	3704
1484	3707
1484	3709
1482	3713
1481	3715
1480	3717
1480	3720
1481	3722
1482	3725
1483	3727
1484	3729
1484	3732
1484	3734
1484	3737
1484	3739
1484	3741
1484	3744
1481	3746
1479	3749
1478	3751
1478	3753
1480	3757
1482	3759
1483	3762
1482	3764
1483	3766
1482	3769
1483	3771
1483	3774
1483	3776
1483	3779
1485	3781
1485	3783
1486	3786
1486	3788
1486	3791
1486	3793
1486	3795
1487	3799
1488	3801
1490	3804
1490	3806
1491	3808
1491	3811
1490	3813
1489	3816
1488	3818
1487	3820
1486	3823
1482	3825
1481	3828
1483	3830
1488	3832
1491	3835
1491	3837
1491	3841
1491	3843
1492	3845
1493	3848
1495	3850
1497	3853
1498	3855
1497	3858
1496	3860
1496	3862
1495	3865
1494	3867
1492	3870
1491	3872
1491	3874
1493	3877
1495	3879
1495	3883
1495	3885
1495	3887
1496	3890
1495	3892
1496	3895
1495	3897
1497	3899
1498	3902
1497	3904
1495	3907
1494	3909
1494	3911
1494	3914
1494	3916
1494	3919
1495	3921
1496	3923
1498	3927
1499	3929
1500	3932
1499	3934
1499	3937
1498	3939
1498	3941
1498	3944
1498	3946
1497	3949
1495	3951
1491	3953
1487	3956
1486	3958
1490	3961
1493	3963
1494	3965
1494	3969
1493	3971
1493	3974
1491	3976
1488	3978
1488	3981
1489	3983
1491	3986
1492	3988
1491	3990
1489	3993
1489	3995
1490	3998
1491	4000
1492	4002
1492	4005
1492	4007
1492	4011
1493	4013
1494	4015
1495	4018
1496	4020
1495	4023
1495	4025
1495	4027
1494	4030
1494	4032
1492	4035
1490	4037
1488	4040
1488	4042
1491	4044
1495	4047
1498	4049
1499	4052
1498	4055
1495	4057
1494	4060
1493	4062
1495	4065
1496	4067
1495	4069
1494	4072
1493	4074
1494	4077
1495	4079
1495	4081
1495	4084
1494	4086
1493	4089
1493	4091
1493	4093
1494	4097
1495	4099
1495	4102
1495	4104
1495	4106
1493	4109
1492	4111
1489	4114
1487	4116
1486	4118
1486	4121
1489	4123
1493	4126
1495	4128
1496	4131
1495	4133
1495	4135
1496	4139
1497	4141
1500	4144
1501	4146
1500	4148
1499	4151
1497	4153
1496	4156
1495	4158
1494	4160
1494	4163
1495	4165
1495	4168
1495	4170
1493	4172
1493	4175
1494	4177
1494	4180
1495	4183
1496	4185
1497	4188
1498	4190
1499	4193
1499	4195
1502	4198
1504	4200
1501	4202
1496	4205
1492	4207
1492	4210
1494	4212
1497	4214
1498	4217
1498	4219
1497	4222
1497	4225
1496	4227
1494	4230
1491	4232
1490	4235
1490	4237
1491	4239
1491	4242
1492	4244
1492	4247
1496	4249
1500	4251
1502	4254
1503	4256
1502	4259
1501	4261
1499	4263
1496	4267
1492	4269
1491	4272
1491	4274
1492	4277
1493	4279
1494	4281
1495	4284
1493	4286
1491	4289
1490	4291
1491	4293
1493	4296
1493	4298
1492	4301
1492	4303
1492	4305
1491	4308
1490	4311
1489	4314
1488	4316
1488	4318
1490	4321
1495	4323
1496	4326
1494	4328
1492	4330
1491	4333
1490	4335
1487	4338
1484	4340
1483	4342
1485	4345
1487	4347
1488	4350
1487	4353
1487	4356
1486	4358
1485	4360
1484	4363
1484	4365
1486	4368
1488	4370
1488	4372
1487	4375
1486	4377
1486	4380
1486	4382
1487	4384
1485	4387
1484	4389
1484	4392
1484	4395
1481	4397
1476	4400
1471	4402
1470	4405
1470	4407
1473	4409
1475	4412
1474	4414
1473	4417
1473	4419
1474	4421
1476	4424
1478	4426
1481	4429
1483	4431
1486	4434
1485	4436
1485	4439
1486	4442
1488	4444
1489	4447
1489	4449
1489	4451
1488	4454
1487	4456
1489	4459
1490	4461
1491	4463
1492	4466
1494	4468
1495	4471
1495	4473
1493	4475
1492	4478
1493	4481
1494	4484
1493	4486
1492	4488
1492	4491
1491	4493
1492	4496
1492	4498
1494	4500
1498	4503
1499	4505
1498	4508
1498	4510
1496	4513
1494	4515
1493	4517
1492	4520
1490	4523
1489	4526
1489	4528
1488	4530
1487	4533
1487	4535
1488	4538
1490	4540
1491	4542
1490	4545
1488	4547
1487	4550
1488	4552
1491	4554
1496	4557
1500	4559
1498	4562
1492	4564
1489	4567
1490	4570
1492	4572
1493	4575
1494	4577
1493	4579
1491	4582
1490	4584
1490	4587
1490	4589
1491	4591
1492	4594
1493	4596
1496	4599
1498	4601
1500	4604
1502	4606
1502	4609
1501	4612
1496	4614
1492	4617
1492	4619
1494	4621
1498	4624
1501	4626
1500	4629
1496	4631
1496	4633
1497	4636
1496	4638
1493	4641
1492	4643
1494	4645
1497	4648
1498	4651
1499	4654
1500	4656
1500	4659
1501	4661
1503	4663
1505	4666
1506	4668
1505	4671
1502	4673
1498	4675
1496	4678
1498	4680
1503	4683
1505	4685
1504	4687
1502	4690
1502	4692
1502	4696
1502	4698
1502	4700
1501	4703
1500	4705
1500	4708
1500	4710
1500	4712
1496	4715
1494	4717
1495	4720
1500	4722
1505	4725
1509	4727
1507	4729
1506	4732
1505	4734
1503	4738
1500	4740
1498	4742
1501	4745
1504	4747
1504	4750
1503	4752
1504	4754
1505	4757
1507	4759
1506	4762
1505	4764
1504	4766
1503	4769
1503	4771
1503	4774
1503	4776
1501	4779
1501	4782
1501	4784
1503	4787
1502	4789
1501	4792
1499	4794
1499	4796
1500	4799
1500	4801
1502	4804
1503	4806
1504	4808
1504	4811
1504	4813
1505	4816
1508	4818
1510	4820
1509	4824
1507	4826
1506	4829
1505	4831
1504	4833
1504	4836
1502	4838
1502	4841
1502	4843
1503	4845
1504	4848
1507	4850
1508	4853
1507	4855
1507	4857
1504	4860
1503	4862
1504	4866
1504	4868
1500	4870
1496	4873
1494	4875
1496	4878
1499	4880
1503	4883
1504	4885
1504	4887
1503	4890
1501	4892
1499	4895
1500	4897
1501	4899
1501	4902
1501	4904
1501	4908
1501	4910
1503	4912
1504	4915
1504	4917
1504	4920
1503	4922
1501	4924
1500	4927
1499	4929
1501	4932
1504	4934
1504	4936
1501	4939
1496	4941
1495	4944
1496	4946
1494	4950
1491	4952
1490	4954
1491	4957
1492	4959
1493	4962
1493	4964
1493	4966
1495	4969
1497	4971
1499	4974
1497	4976
1494	4978
1492	4981
1493	4983
1495	4986
1496	4988
1494	4990
1493	4994
1492	4996
1492	4999
1490	5001
1487	5003
1486	5006
1489	5008
1492	5011
1493	5013
1494	5015
1494	5018
1495	5020
1496	5023
1496	5025
1495	5028
1493	5030
1489	5032
1487	5036
1486	5038
1488	5041
1489	5043
1489	5045
1488	5048
1488	5050
1489	5053
1490	5055
1489	5057
1488	5060
1489	5062
1489	5065
1489	5067
1488	5069
1484	5072
1481	5074
1484	5078
1489	5080
1492	5082
1492	5085
1492	5087
1492	5090
1491	5092
1491	5095
1490	5097
1490	5099
1489	5102
1490	5104
1488	5107
1488	5109
1488	5111
1492	5114
1495	5116
1497	5120
1497	5122
1494	5124
1493	5127
1491	5129
1492	5132
1494	5134
1495	5136
1496	5139
1496	5141
1498	5144
1498	5146
1494	5148
1492	5151
1492	5153
1492	5156
1492	5158
1490	5160
1487	5164
1486	5166
1489	5169
1492	5171
1494	5173
1496	5176
1497	5178
1497	5181
1497	5183
1492	5186
1489	5188
1487	5190
1487	5193
1489	5195
1491	5198
1492	5200
1491	5202
1491	5206
1492	5208
1495	5211
1496	5213
1495	5215
1494	5218
1493	5220
1494	5223
1494	5225
1495	5227
1495	5230
1496	5232
1497	5235
1496	5237
1495	5239
1494	5242
1490	5244
1488	5248
1488	5250
1489	5252
1488	5255
1487	5257
1487	5260
1490	5262
1491	5264
1491	5267
1490	5269
1491	5272
1491	5274
1492	5277
1492	5279
1493	5281
1493	5284
1490	5286
1489	5289
1490	5292
1490	5294
1489	5297
1489	5299
1489	5302
1489	5304
1489	5306
1489	5309
1489	5311
1490	5314
1491	5316
1488	5318
1486	5321
1486	5323
1488	5326
1490	5328
1492	5330
1495	5334
1500	5336
1502	5339
1499	5341
1496	5343
1492	5346
1490	5348
1489	5351
1489	5353
1490	5356
1491	5358
1491	5360
1492	5363
1493	5365
1494	5368
1495	5370
1497	5372
1498	5376
1498	5378
1496	5381
1492	5383
1489	5385
1491	5388
1494	5390
1495	5393
1496	5395
1496	5397
1496	5400
1494	5402
1492	5405
1491	5407
1491	5409
1491	5412
1492	5414
1492	5417
1492	5420
1494	5422
1495	5425
1494	5427
1493	5430
1494	5432
1498	5435
1499	5437
1498	5439
1494	5442
1492	5444
1492	5447
1494	5449
1497	5451
1498	5454
1496	5456
1494	5459
1494	5462
1493	5464
1493	5467
1491	5469
1490	5472
1490	5474
1492	5476
1492	5479
1492	5481
1491	5484
1491	5486
1489	5488
1490	5491
1489	5493
1489	5496
1489	5498
1489	5500
1490	5504
1491	5506
1492	5509
1494	5511
1495	5513
1495	5516
1491	5518
1488	5521
1486	5523
1487	5526
1490	5528
1491	5530
1491	5533
1491	5535
1490	5538
1487	5540
1486	5542
1487	5545
1489	5548
1491	5551
1492	5553
1491	5555
1488	5558
1488	5560
1489	5563
1490	5565
1490	5567
1489	5570
1491	5572
1494	5575
1495	5577
1493	5579
1491	5582
1491	5584
1492	5587
1494	5590
1492	5593
1491	5595
1492	5597
1493	5600
1493	5602
1495	5605
1496	5607
1495	5609
1492	5612
1489	5614
1487	5617
1485	5619
1486	5621
1488	5624
1492	5626
1493	5629
1493	5632
1493	5634
1492	5637
1492	5639
1493	5642
1492	5644
1490	5646
1489	5649
1489	5651
1492	5654
1497	5656
1500	5658
1499	5661
1498	5663
1495	5666
1494	5668
1492	5670
1494	5673
1494	5676
1494	5679
1492	5681
1494	5684
1496	5686
1497	5688
1497	5691
1494	5693
1491	5696
1489	5698
1491	5700
1495	5703
1499	5705
1499	5708
1497	5710
1497	5712
1497	5715
1497	5718
1498	5721
1498	5723
1499	5725
1498	5728
1499	5730
1499	5733
1498	5735
1495	5737
1493	5740
1493	5742
1492	5745
1490	5747
1491	5750
1495	5752
1498	5754
1498	5757
1497	5760
1496	5763
1496	5765
1497	5767
1497	5770
1494	5772
1490	5775
1489	5777
1492	5779
1495	5782
1497	5784
1498	5787
1498	5789
1496	5791
1495	5794
1495	5796
1498	5799
1502	5801
1503	5804
1504	5807
1504	5809
1502	5812
1501	5814
1499	5816
1498	5819
1498	5821
1499	5824
1499	5826
1496	5828
1494	5831
1494	5833
1498	5836
1500	5838
1500	5841
1500	5843
1500	5846
1501	5849
1500	5851
1500	5854
1501	5856
1501	5858
1501	5861
1501	5863
1501	5866
1502	5868
1503	5870
1503	5873
1504	5875
1502	5878
1499	5880
1498	5882
1499	5885
1502	5888
1503	5891
1504	5893
1504	5895
1504	5898
1503	5900
1501	5903
1499	5905
1498	5908
1499	5910
1501	5912
1502	5915
1501	5917
1501	5920
1500	5922
1499	5924
1500	5927
1502	5929
1505	5933
1504	5935
1500	5937
1496	5940
1494	5942
1495	5945
1498	5947
1500	5949
1498	5952
1495	5954
1488	5957
1485	5959
1486	5961
1490	5964
1494	5966
1493	5969
1492	5971
1492	5974
1493	5977
1493	5979
1493	5982
1494	5984
1493	5987
1493	5989
1492	5991
1491	5994
1492	5996
1493	5999
1495	6001
1494	6003
1492	6006
1490	6008
1489	6011
1490	6013
1494	6016
1495	6019
1494	6021
1492	6024
1491	6026
1494	6028
1497	6031
1497	6033
1494	6036
1488	6038
1482	6040
1481	6043
1484	6045
1486	6048
1487	6050
1488	6053
1489	6055
1489	6057
1489	6061
1489	6063
1488	6066
1488	6068
1488	6070
1489	6073
1491	6075
1492	6078
1491	6080
1490	6082
1488	6085
1485	6087
1484	6090
1486	6092
1487	6094
1488	6097
1485	6099
1483	6103
1484	6105
1484	6107
1483	6110
1483	6112
1485	6115
1487	6117
1487	6120
1487	6122
1487	6124
1487	6127
1488	6129
1489	6132
1490	6134
1490	6136
1488	6139
1484	6141
1480	6145
1481	6147
1484	6149
1489	6152
1492	6154
1494	6157
1494	6159
1494	6161
1493	6164
1492	6166
1492	6169
1490	6171
1489	6173
1488	6176
1486	6178
1484	6181
1490	6183
1495	6185
1499	6189
1497	6191
1492	6194
1490	6196
1491	6199
1491	6201
1490	6203
1489	6206
1489	6208
1490	6211
1490	6213
1490	6215
1490	6218
1490	6220
1491	6223
1491	6225
1492	6227
1493	6231
1492	6233
1491	6236
1491	6238
1491	6240
1492	6243
1494	6245
1495	6248
1495	6250
1494	6252
1493	6255
1494	6257
1496	6260
1496	6262
1495	6265
1494	6267
1494	6269
1493	6273
1493	6275
1493	6278
1493	6280
1493	6282
1493	6285
1493	6287
1493	6290
1493	6292
1492	6294
1492	6297
1491	6299
1491	6302
1492	6304
1493	6306
1493	6309
1494	6311
1495	6315
1496	6317
1496	6319
1496	6322
1496	6324
1496	6327
1496	6329
1495	6332
1495	6334
1497	6336
1499	6339
1502	6341
1507	6344
1512	6346
1513	6348
1509	6351
1505	6353
1503	6356
1501	6359
1500	6361
1499	6364
1499	6366
1505	6369
1509	6371
1509	6373
1509	6376
1510	6378
1507	6381
1507	6383
1507	6385
1509	6388
1512	6390
1516	6393
1526	6395
1538	6398
1546	6401
1546	6403
1546	6406
1546	6408
1546	6411
1537	6413
1532	6415
1547	6418
1562	6420
1568	6423
1558	6425
1547	6427
1546	6430
1549	6432
1556	6435
1522	6437
1472	6439
1448	6443
1469	6445
1531	6448
1581	6450
1611	6452
1647	6455
1660	6457
1650	6460
1626	6462
1607	6464
1603	6467
1618	6469
1634	6472
1645	6474
1612	6476
1549	6479
1507	6481
1548	6484
1613	6487
1623	6489
1614	6492
1629	6494
1657	6497
1663	6499
1642	6502
1629	6504
1646	6506
1666	6509
1665	6511
1645	6514
1569	6516
1515	6518
1531	6521
1578	6523
1603	6526
1597	6529
1601	6531
1596	6534
1587	6536
1581	6539
1577	6541
1577	6543
1591	6546
1631	6548
1642	6551
1634	6553
1615	6555
1614	6558
1604	6560
1599	6563
1585	6565
1588	6567
1588	6571
1574	6573
1555	6576
1482	6578
1432	6581
1407	6583
1482	6585
1566	6588
1599	6590
1607	6593
1614	6595
1600	6597
1577	6600
1565	6602
1586	6605
1598	6607
1587	6609
1590	6612
1587	6615
1562	6618
1523	6620
1502	6622
1468	6625
1433	6627
1428	6630
1458	6632
1523	6634
1615	6637
1670	6639
1664	6642
1600	6644
1555	6646
1528	6649
1521	6651
1501	6654
1479	6657
1481	6660
1537	6662
1541	6664
1494	6667
1442	6669
1485	6672
1554	6674
1581	6676
1588	6679
1583	6681
1568	6684
1507	6686
1467	6688
1491	6691
1520	6693
1504	6696
1511	6699
1533	6701
1554	6704
1545	6706
1518	6709
1515	6711
1544	6713
1561	6716
1537	6718
1496	6721
1492	6723
1532	6725
1525	6728
1463	6730
1437	6733
1453	6735
1521	6738
1540	6740
1514	6743
1490	6746
1494	6748
1511	6751
1550	6753
1583	6755
1550	6758
1504	6760
1505	6763
1488	6765
1456	6767
1440	6770
1487	6772
1533	6775
1553	6777
1547	6779
1540	6782
1534	6785
1505	6788
1493	6790
1517	6792
1539	6795
1526	6797
1479	6800
1409	6802
1339	6804
1385	6807
1484	6809
1530	6812
1553	6814
1555	6817
1551	6819
1548	6821
1536	6824
1504	6827
1500	6830
1514	6832
1503	6834
1502	6837
1478	6839
1477	6842
1524	6844
1509	6846
1421	6849
1392	6851
1422	6854
1481	6856
1507	6858
1500	6861
1491	6863
1520	6866
1526	6868
1499	6871
1489	6874
1538	6876
1538	6879
1493	6881
1479	6883
1458	6886
1450	6888
1458	6891
1461	6893
1438	6895
1459	6898
1499	6900
1516	6903
1515	6905
1508	6908
1525	6910
1543	6913
1543	6916
1497	6918
1451	6921
1434	6923
1473	6925
1512	6928
1507	6930
1486	6933
1454	6935
1476	6937
1502	6940
1502	6942
1502	6945
1513	6947
1499	6949
1488	6952
1480	6955
1473	6958
1462	6960
1512	6962
1518	6965
1447	6967
1407	6970
1459	6972
1483	6975
1501	6977
1529	6979
1538	6982
1512	6984
1478	6987
1464	6989
1477	6991
1499	6994
1445	6996
1378	7000
1403	7002
1491	7004
1525	7007
1523	7009
1504	7012
1518	7014
1572	7016
1588	7019
1500	7021
1391	7024
1386	7026
1434	7028
1438	7031
1439	7033
1478	7036
1497	7038
1508	7042
1552	7044
1568	7046
1539	7049
1519	7051
1518	7054
1486	7056
1436	7058
1410	7061
1398	7063
1423	7066
1480	7068
1508	7070
1506	7073
1473	7075
1455	7078
1484	7080
1528	7083
1530	7086
1521	7088
1497	7091
1457	7093
1445	7095
1482	7098
1492	7100
1473	7103
1464	7105
1458	7107
1450	7110
1466	7112
1461	7115
1453	7117
1468	7120
1501	7122
1513	7124
1477	7128
1439	7130
1409	7133
1442	7135
1463	7137
1449	7140
1461	7142
1492	7145
1499	7147
1478	7149
1475	7152
1507	7154
1502	7157
1476	7159
1489	7161
1515	7164
1510	7166
1482	7170
1471	7172
1440	7174
1419	7177
1453	7179
1473	7182
1468	7184
1479	7187
1495	7189
1499	7191
1497	7194
1469	7196
1448	7199
1469	7201
1506	7203
1497	7206
1497	7208
1500	7212
1484	7214
1486	7216
1512	7219
1510	7221
1516	7224
1529	7226
1504	7228
1467	7231
1452	7233
1429	7236
1400	7238
1391	7240
1456	7243
1521	7245
1545	7248
1524	7250
1472	7252
1462	7256
1472	7258
1512	7261
1525	7263
1452	7266
1416	7268
1449	7270
1488	7273
1449	7275
1419	7278
1468	7280
1527	7282
1521	7285
1507	7287
1485	7290
1508	7292
1559	7294
1547	7298
1494	7300
1474	7303
1495	7305
1494	7307
1489	7310
1530	7312
1511	7315
1455	7317
1456	7319
1495	7322
1480	7324
1465	7327
1488	7329
1489	7331
1501	7334
1498	7336
1507	7340
1511	7342
1521	7345
1533	7347
1505	7349
1453	7352
1450	7354
1467	7357
1484	7359
1525	7361
1524	7364
1438	7366
1398	7369
1436	7371
1489	7373
1506	7376
1531	7378
1525	7382
1505	7384
1506	7386
1513	7389
1516	7391
1514	7394
1498	7396
1427	7399
1418	7401
1480	7403
1525	7406
1510	7408
1493	7411
1499	7413
1513	7415
1503	7418
1491	7420
1487	7424
1501	7426
1521	7428
1527	7431
1466	7433
1408	7436
1432	7438
1482	7440
1507	7443
1540	7445
1540	7448
1510	7450
1482	7452
1488	7455
1479	7457
1462	7460
1491	7462
1494	7465
1462	7468
1469	7470
1520	7473
1524	7475
1503	7478
1493	7480
1512	7482
1552	7485
1538	7487
1470	7490
1427	7492
1450	7494
1476	7497
1463	7499
1454	7502
1511	7504
1526	7506
1527	7510
1467	7512
1423	7515
1468	7517
1443	7519
1388	7522
1419	7524
1477	7527
1528	7529
1554	7532
1562	7534
1563	7536
1565	7539
1558	7541
1511	7544
1488	7546
1465	7548
1398	7552
1384	7554
1455	7557
1514	7559
1514	7561
1521	7564
1527	7566
1536	7569
1513	7571
1465	7573
1462	7576
1491	7578
1503	7581
1489	7583
1442	7585
1413	7588
1482	7590
1523	7593
1512	7596
1499	7599
1514	7601
1526	7603
1515	7606
1500	7608
1483	7611
1470	7613
1481	7615
1472	7618
1470	7620
1511	7623
1526	7625
1460	7627
1404	7630
1416	7632
1472	7635
1513	7638
1541	7640
1545	7643
1513	7645
1486	7648
1467	7650
1469	7652
1475	7655
1442	7657
1437	7660
1480	7662
1524	7665
1534	7667
1513	7669
1498	7672
1490	7674
1458	7677
1462	7680
1506	7682
1515	7685
1506	7687
1498	7690
1492	7692
1485	7694
1477	7697
1470	7699
1470	7702
1453	7704
1435	7706
1456	7709
1493	7711
1507	7714
1523	7716
1529	7718
1496	7721
1481	7724
1481	7727
1471	7729
1461	7731
1481	7734
1464	7736
1434	7739
1447	7741
1462	7744
1463	7746
1465	7748
1480	7751
1492	7753
1539	7756
1578	7758
1564	7760
1514	7763
1444	7766
1430	7769
1444	7771
1445	7773
1445	7776
1462	7778
1467	7781
1462	7783
1458	7785
1476	7788
1524	7790
1568	7793
1535	7795
1472	7797
1473	7800
1494	7802
1491	7805
1449	7808
1423	7810
1452	7813
1494	7815
1529	7818
1525	7820
1495	7823
1457	7825
1475	7827
1468	7830
1460	7832
1466	7835
1435	7837
1413	7839
1465	7842
1530	7844
1513	7847
1493	7849
1485	7852
1486	7855
1491	7857
1499	7860
1491	7862
1425	7864
1402	7867
1464	7869
1516	7872
1530	7874
1534	7876
1503	7879
1479	7881
1513	7884
1532	7886
1482	7889
1445	7891
1458	7894
1518	7897
1496	7899
1436	7902
1432	7904
1485	7906
1487	7909
1472	7911
1502	7914
1553	7916
1554	7918
1512	7921
1467	7923
1440	7926
1400	7928
1426	7930
1474	7933
1476	7936
1488	7939
1510	7941
1519	7943
1513	7946
1497	7948
1517	7951
1564	7953
1578	7956
1481	7958
1403	7960
1370	7963
1426	7965
1482	7968
1484	7970
1484	7972
1494	7975
1492	7977
1521	7981
1559	7983
1562	7985
1503	7988
1423	7990
1404	7993
1432	7995
1454	7997
1468	8000
1522	8002
1552	8005
1545	8007
1541	8009
1549	8012
1495	8014
1415	8017
1423	8019
1501	8023
1534	8025
1538	8027
1533	8030
1514	8032
1495	8035
1502	8037
1509	8039
1472	8042
1465	8044
1473	8047
1477	8049
1472	8051
1476	8054
1473	8056
1488	8059
1544	8061
1545	8064
1466	8067
1396	8069
1441	8072
1495	8074
1525	8076
1517	8079
1501	8081
1482	8084
1505	8086
1502	8088
1447	8091
1410	8093
1446	8096
1512	8098
1533	8100
1516	8103
1517	8105
1543	8109
1550	8111
1499	8114
1478	8116
1456	8118
1467	8121
1483	8123
1482	8126
1466	8128
1462	8130
1483	8133
1498	8135
1484	8138
1478	8140
1498	8142
1515	8145
1503	8147
1482	8151
1463	8153
1466	8155
1455	8158
1457	8160
1510	8163
1526	8165
1514	8167
1509	8170
1514	8172
1514	8175
1488	8177
1426	8179
1394	8182
1452	8184
1480	8187
1447	8189
1451	8193
1501	8195
1541	8197
1534	8200
1512	8202
1486	8205
1479	8207
1505	8209
1534	8212
1517	8214
1498	8217
1460	8219
1418	8221
1429	8224
1481	8226
1521	8229
1552	8231
1536	8233
1474	8237
1456	8239
1472	8242
1492	8244
1520	8246
1509	8249
1473	8251
1451	8254
1481	8256
1498	8258
1512	8261
1465	8263
1441	8266
1443	8268
1491	8271
1493	8273
1450	8275
1439	8279
1491	8281
1545	8284
1549	8286
1542	8288
1511	8291
1450	8293
1427	8296
1455	8298
1491	8300
1500	8303
1499	8305
1469	8308
1456	8310
1472	8312
1485	8315
1495	8317
1500	8321
1508	8323
1504	8325
1498	8328
1463	8330
1467	8333
1502	8335
1517	8338
1494	8340
1468	8342
1473	8345
1488	8347
1505	8350
1482	8352
1455	8354
1465	8357
1514	8359
1526	8363
1545	8365
1515	8367
1473	8370
1469	8372
1470	8375
1449	8377
1455	8379
1491	8382
1526	8384
1552	8387
1531	8389
1490	8391
1463	8394
1453	8396
1432	8399
1465	8401
1511	8403
1518	8407
1502	8409
1471	8412
1456	8414
1460	8417
1474	8419
1501	8421
1500	8424
1456	8426
1452	8429
1501	8431
1521	8433
1514	8436
1524	8438
1527	8441
1521	8443
1490	8445
1472	8449
1451	8451
1441	8454
1453	8456
1460	8458
1453	8461
1430	8463
1442	8466
1475	8468
1494	8470
1506	8473
1502	8475
1486	8478
1486	8480
1512	8482
1522	8485
1476	8487
1425	8491
1401	8493
1400	8496
1441	8498
1510	8500
1546	8503
1532	8505
1518	8508
1525	8510
1525	8512
1514	8515
1466	8517
1450	8520
1466	8522
1483	8524
1481	8527
1472	8529
1428	8532
1402	8535
1418	8537
1442	8540
1472	8542
1493	8545
1507	8547
1510	8549
1533	8552
1513	8554
1480	8557
1489	8559
1477	8561
1454	8564
1450	8566
1472	8569
1484	8571
1497	8574
1480	8577
1471	8579
1458	8582
1463	8584
1501	8587
1532	8589
1517	8591
1489	8594
1475	8596
1440	8599
1421	8601
1444	8603
1476	8606
1476	8608
1454	8611
1456	8613
1454	8615
1446	8619
1456	8621
1486	8624
1494	8626
1496	8628
1499	8631
1467	8633
1441	8636
1458	8638
1481	8641
1488	8643
1460	8645
1416	8648
1385	8650
1427	8653
1483	8655
1496	8657
1485	8660
1477	8663
1458	8666
1448	8668
1479	8670
1541	8673
1569	8675
1552	8678
1494	8680
1463	8682
1460	8685
1480	8687
1490	8690
1466	8692
1406	8694
1412	8697
1468	8699
1490	8702
1461	8705
1466	8707
1480	8710
1473	8712
1489	8715
1509	8717
1515	8720
1511	8722
1489	8724
1476	8727
1469	8729
1453	8732
1442	8734
1459	8736
1466	8739
1476	8741
1478	8744
1490	8747
1495	8749
1484	8752
1480	8754
1490	8757
1473	8759
1450	8761
1442	8764
1456	8766
1483	8769
1507	8771
1476	8773
1443	8776
1471	8778
1503	8781
1503	8783
1489	8785
1479	8788
1486	8791
1499	8794
1510	8796
1518	8799
1528	8801
1520	8803
1475	8806
1437	8808
1452	8811
1483	8813
1492	8815
1494	8818
1485	8820
1472	8823
1438	8825
1427	8827
1478	8830
1512	8833
1513	8836
1511	8838
1507	8840
1499	8843
1509	8845
1522	8848
1527	8850
1500	8852
1447	8855
1433	8857
1454	8860
1460	8862
1471	8865
1494	8867
1484	8869
1488	8872
1513	8875
1508	8878
1476	8880
1476	8882
1495	8885
1508	8887
1504	8890
1497	8892
1482	8894
1468	8897
1478	8899
1498	8902
1516	8904
1537	8906
1541	8909
1528	8911
1477	8914
1439	8916
1437	8919
1485	8922
1498	8924
1492	8927
1493	8929
1481	8932
1451	8934
1479	8936
1537	8939
1547	8941
1508	8944
1476	8946
1480	8948
1481	8951
1488	8953
1483	8956
1463	8958
1463	8961
1489	8964
1504	8966
1493	8969
1482	8971
1467	8973
1474	8976
1488	8978
1481	8981
1478	8983
1488	8985
1496	8988
1499	8990
1498	8993
1510	8995
1520	8997
1517	9000
1480	9003
1437	9006
1422	9008
1463	9011
1481	9013
1445	9015
1433	9018
1484	9020
1523	9023
1528	9025
1507	9027
1489	9030
1491	9032
1514	9035
1527	9037
1525	9039
1514	9042
1491	9044
1454	9048
1443	9050
1454	9052
1422	9055
1395	9057
1423	9060
1480	9062
1503	9064
1533	9067
1544	9069
1523	9072
1514	9074
1518	9076
1508	9079
1490	9081
1491	9084
1504	9086
1506	9090
1502	9092
1489	9094
1469	9097
1451	9099
1459	9102
1477	9104
1523	9106
1536	9109
1504	9111
1463	9114
1470	9116
1490	9118
1499	9121
1464	9123
1446	9126
1470	9128
1512	9131
1517	9134
1517	9136
1505	9139
1501	9141
1497	9143
1494	9146
1504	9148
1551	9151
1561	9153
1538	9156
1510	9158
1512	9160
1504	9163
1505	9165
1487	9168
1466	9170
1483	9172
1495	9176
1504	9178
1508	9181
1493	9183
1474	9185
1481	9188
1499	9190
1512	9193
1517	9195
1516	9197
1507	9200
1508	9202
1489	9205
1468	9207
1478	9209
1515	9212
1518	9214
1516	9218
1546	9220
1558	9223
1499	9225
1467	9227
1494	9230
1513	9232
1529	9235
1537	9237
1522	9239
1498	9242
1471	9244
1431	9247
1404	9249
1416	9251
1471	9254
1509	9256
1506	9260
1507	9262
1515	9264
1503	9267
1497	9269
1488	9272
1503	9274
1520	9276
1536	9279
1509	9281
1484	9284
1456	9286
1432	9289
1458	9291
1504	9293
1521	9296
1509	9298
1505	9302
1502	9304
1523	9306
1518	9309
1471	9311
1453	9314
1519	9316
1558	9318
1553	9321
1505	9323
1475	9326
1488	9328
1476	9330
1468	9333
1525	9335
1544	9338
1478	9340
1435	9342
1463	9346
1518	9348
1556	9351
1565	9353
1560	9356
1530	9358
1530	9360
1539	9363
1513	9365
1493	9368
1505	9370
1503	9372
1470	9375
1463	9377
1483	9380
1518	9382
1529	9384
1500	9388
1465	9390
1460	9393
1500	9395
1469	9397
1435	9400
1490	9402
1521	9405
1496	9407
1453	9409
1450	9412
1488	9414
1514	9417
1526	9419
1542	9422
1545	9424
1534	9426
1530	9430
1546	9432
1554	9435
1546	9437
1496	9439
1475	9442
1493	9444
1513	9447
1499	9449
1505	9451
1495	9454
1430	9456
1402	9459
1421	9461
1478	9463
1505	9466
1532	9468
1513	9472
1468	9474
1475	9476
1515	9479
1520	9481
1505	9484
1492	9486
1494	9489
1503	9491
1507	9493
1518	9496
1531	9498
1551	9501
1531	9503
1499	9505
1484	9508
1502	9510
1531	9513
1544	9516
1488	9518
1424	9521
1423	9523
1470	9526
1488	9528
1526	9530
1536	9533
1526	9535
1505	9538
1497	9540
1510	9542
1524	9545
1536	9547
1523	9550
1479	9552
1438	9555
1445	9558
1463	9560
1471	9563
1510	9565
1545	9568
1510	9570
1448	9572
1455	9575
1490	9577
1520	9580
1529	9582
1527	9584
1529	9587
1495	9589
1470	9592
1476	9594
1482	9596
1466	9600
1468	9602
1502	9605
1537	9607
1540	9609
1514	9612
1512	9614
1515	9617
1534	9619
1503	9622
1453	9624
1411	9626
1462	9629
1525	9631
1529	9634
1507	9636
1480	9638
1474	9641
1474	9644
1480	9647
1497	9649
1526	9651
1553	9654
1550	9656
1528	9659
1510	9661
1507	9663
1480	9666
1463	9668
1455	9671
1463	9673
1471	9675
1489	9678
1482	9680
1487	9683
1497	9686
1509	9688
1537	9691
1545	9693
1529	9696
1526	9698
1536	9700
1535	9703
1488	9705
1403	9708
1406	9710
1468	9713
1492	9715
1489	9717
1487	9720
1492	9722
1481	9725
1474	9728
1490	9730
1523	9733
1517	9735
1510	9738
1499	9740
1489	9742
1487	9745
1466	9747
1450	9750
1428	9752
1415	9754
1416	9757
1461	9759
1479	9762
1501	9764
1512	9766
1525	9769
1549	9772
1563	9775
1544	9777
1536	9780
1534	9782
1518	9784
1472	9787
1406	9789
1365	9792
1381	9794
1428	9796
1482	9799
1492	9801
1485	9804
1510	9806
1540	9808
1539	9811
1533	9814
1545	9817
1547	9819
1530	9821
1500	9824
1471	9826
1448	9829
1445	9831
1483	9833
1499	9836
1499	9838
1476	9841
1486	9843
1506	9845
1502	9848
1497	9850
1501	9853
1502	9856
1510	9859
1498	9861
1482	9863
1504	9866
1511	9868
1493	9871
1502	9873
1513	9875
1505	9878
1468	9880
1443	9883
1453	9885
1502	9887
1524	9890
1514	9892
1498	9895
1505	9897
1516	9900
1483	9903
1456	9905
1477	9908
1483	9910
1469	9912
1470	9915
1461	9917
1455	9920
1497	9922
1567	9925
1607	9927
1537	9929
1450	9932
1441	9934
1486	9937
1520	9939
1511	9942
1457	9945
1451	9947
1516	9950
1522	9952
1528	9954
1512	9957
1495	9959
1468	9962
1485	9964
1495	9966
1491	9969
1483	9971
1491	9974
1483	9976
1472	9978
1502	9981
1581	9984
1586	9987
1543	9989
1504	9992
1489	9994
1499	9996
1533	9999
1543	10001
1519	10004
1502	10006
1518	10009
1532	10011
1534	10013
1496	10016
1438	10018
1450	10021
1500	10023
1510	10027
1462	10029
1426	10032
1442	10034
1485	10037
1486	10039
1490	10041
1531	10044
1556	10046
1542	10049
1521	10051
1521	10054
1517	10056
1458	10059
1415	10061
1440	10064
1464	10066
1494	10068
1515	10072
1498	10074
1485	10077
1514	10079
1575	10082
1579	10084
1528	10087
1494	10089
1488	10092
1509	10094
1524	10097
1518	10099
1457	10101
1436	10104
1450	10106
1493	10109
1490	10112
1452	10115
1478	10117
1538	10120
1553	10122
1526	10125
1468	10127
1450	10129
1494	10132
1519	10134
1537	10137
1554	10139
1533	10142
1503	10144
1501	10147
1509	10149
1491	10152
1454	10155
1445	10157
1467	10160
1507	10162
1529	10165
1504	10167
1451	10170
1455	10172
1468	10175
1482	10177
1482	10180
1500	10182
1524	10185
1544	10187
1546	10189
1545	10192
1448	10194
1364	10198
1421	10200
1529	10203
1538	10205
1517	10208
1492	10210
1453	10213
1452	10215
1500	10217
1540	10220
1545	10222
1543	10225
1528	10227
1497	10230
1485	10232
1512	10235
1498	10237
1435	10241
1426	10243
1498	10245
1568	10248
1564	10250
1503	10253
1438	10255
1431	10258
1462	10260
1493	10263
1515	10265
1527	10268
1539	10270
1565	10273
1558	10275
1514	10277
1453	10280
1421	10283
1421	10286
1449	10288
1452	10291
1462	10293
1491	10296
1510	10298
1549	10301
1570	10303
1540	10305
1498	10308
1451	10310
1429	10313
1456	10315
1466	10318
1465	10320
1475	10323
1485	10326
1480	10329
1516	10331
1537	10333
1510	10336
1494	10338
1510	10341
1524	10343
1537	10346
1532	10348
1460	10351
1401	10353
1423	10356
1487	10358
1530	10360
1549	10363
1510	10365
1477	10369
1491	10371
1514	10374
1510	10376
1505	10379
1500	10381
1468	10384
1467	10386
1484	10389
1496	10391
1481	10393
1469	10396
1492	10398
1504	10401
1482	10403
1469	10406
1482	10408
1517	10412
1544	10414
1541	10417
1501	10419
1447	10421
1431	10424
1489	10426
1512	10429
1524	10431
1516	10434
1521	10436
1536	10439
1538	10441
1516	10444
1462	10446
1454	10448
1500	10451
1503	10454
1440	10457
1408	10459
1446	10462
1489	10464
1518	10467
1536	10469
1556	10472
1552	10474
1541	10476
1534	10479
1545	10481
1539	10484
1518	10486
1515	10489
1532	10491
1518	10494
1489	10497
1436	10500
1382	10502
1400	10505
1474	10507
1504	10509
1522	10512
1534	10514
1515	10517
1513	10519
1512	10522
1499	10524
1528	10527
1542	10529
1487	10532
1426	10534
1441	10536
1437	10540
1453	10542
1532	10545
1542	10547
1507	10550
1488	10552
1502	10555
1506	10557
1484	10560
1469	10562
1471	10564
1508	10567
1500	10569
1406	10572
1376	10574
1456	10577
1502	10579
1490	10583
1515	10585
1553	10588
1566	10590
1561	10593
1517	10595
1470	10597
1451	10600
1454	10602
1460	10605
1480	10607
1481	10610
1459	10612
1471	10615
1512	10617
1524	10620
1491	10622
1485	10625
1493	10628
1492	10630
1477	10633
1457	10635
1462	10638
1483	10640
1492	10643
1467	10645
1456	10648
1478	10650
1509	10652
1532	10655
1529	10657
1510	10660
1490	10662
1505	10665
1519	10668
1529	10671
1528	10673
1518	10676
1508	10678
1489	10681
1482	10683
1488	10685
1468	10688
1430	10690
1436	10693
1477	10695
1437	10698
1391	10700
1429	10703
1490	10705
1499	10708
1523	10711
1547	10713
1542	10716
1537	10718
1507	10721
1480	10723
1493	10726
1508	10728
1497	10731
1445	10733
1385	10736
1414	10738
1532	10740
1565	10743
1544	10745
1550	10748
1565	10750
1536	10754
1479	10756
1471	10759
1482	10761
1440	10764
1407	10766
1461	10768
1504	10771
1488	10773
1488	10776
1504	10778
1502	10781
1475	10783
1465	10786
1492	10788
1539	10791
1537	10793
1508	10797
1503	10799
1493	10801
1475	10804
1465	10806
1466	10809
1466	10811
1502	10814
1526	10816
1521	10819
1485	10821
1479	10824
1485	10826
1513	10828
1522	10831
1520	10833
1508	10836
1495	10839
1502	10842
1511	10844
1490	10847
1446	10849
1436	10852
1438	10854
1390	10856
1356	10859
1397	10861
1488	10864
1559	10866
1557	10869
1532	10871
1524	10874
1563	10876
1599	10880
1591	10882
1529	10885
1454	10887
1446	10889
1464	10892
1449	10894
1421	10897
1460	10899
1534	10902
1559	10904
1513	10907
1493	10909
1488	10912
1488	10914
1482	10916
1498	10919
1486	10921
1471	10925
1515	10927
1550	10930
1561	10932
1538	10935
1493	10937
1485	10940
1497	10942
1480	10944
1465	10947
1458	10949
1461	10952
1467	10954
1489	10957
1518	10959
1531	10962
1523	10964
1516	10968
1501	10970
1473	10972
1469	10975
1460	10977
1440	10980
1468	10982
1527	10985
1528	10987
1514	10990
1494	10992
1491	10995
1483	10997
1488	11000
1502	11002
1489	11004
1452	11008
1439	11010
1460	11013
1476	11015
1497	11018
1534	11020
1558	11023
1490	11025
1425	11028
1408	11030
1481	11032
1502	11035
1476	11037
1466	11040
1486	11042
1520	11045
1530	11047
1519	11051
1524	11053
1510	11056
1485	11058
1486	11060
1470	11063
1450	11065
1435	11068
1446	11070
1469	11073
1486	11075
1524	11078
1532	11080
1493	11083
1504	11085
1541	11088
1529	11090
1523	11092
1538	11096
1513	11098
1415	11101
1372	11103
1452	11106
1549	11108
1552	11111
1531	11113
1532	11116
1520	11118
1509	11120
1511	11123
1517	11125
1498	11128
1455	11130
1442	11133
1459	11136
1433	11139
1439	11141
1517	11144
1558	11146
1520	11148
1498	11151
1496	11153
1515	11156
1506	11158
1461	11161
1442	11163
1489	11166
1561	11168
1514	11171
1460	11173
1481	11176
1519	11179
1511	11181
1505	11184
1459	11186
1420	11189
1458	11191
1514	11194
1518	11196
1504	11199
1507	11201
1489	11204
1509	11206
1523	11208
1504	11211
1470	11213
1474	11216
1483	11218
1474	11222
1491	11224
1487	11227
1492	11229
1486	11232
1472	11234
1457	11236
1508	11239
1549	11241
1542	11244
1485	11246
1465	11249
1490	11251
1511	11254
1513	11256
1508	11259
1516	11261
1528	11264
1497	11267
1422	11269
1407	11272
1445	11274
1520	11277
1544	11279
1532	11282
1519	11284
1540	11287
1540	11289
1530	11292
1527	11294
1526	11296
1515	11299
1462	11301
1411	11304
1428	11307
1493	11310
1501	11312
1480	11315
1470	11317
1524	11320
1550	11322
1544	11324
1532	11327
1517	11329
1499	11332
1470	11334
1470	11337
1474	11339
1456	11342
1460	11344
1435	11347
1441	11350
1458	11352
1513	11355
1498	11357
1483	11360
1490	11362
1504	11365
1510	11367
1514	11370
1516	11372
1525	11375
1516	11377
1449	11380
1411	11382
1464	11384
1502	11387
1485	11389
1472	11393
1486	11395
1476	11398
1448	11400
1462	11403
1496	11405
1490	11408
1491	11410
1514	11412
1514	11415
1522	11417
1541	11420
1526	11422
1447	11425
1391	11427
1436	11430
1504	11432
1548	11436
1513	11438
1492	11440
1487	11443
1504	11445
1534	11448
1533	11450
1505	11453
1498	11455
1523	11458
1524	11460
1472	11463
1443	11465
1459	11467
1501	11470
1513	11472
1499	11475
1480	11478
1468	11481
1486	11483
1512	11486
1524	11488
1529	11491
1536	11493
1522	11496
1484	11498
1451	11500
1449	11503
1461	11505
1477	11508
1488	11510
1497	11513
1493	11515
1475	11518
1481	11521
1516	11524
1521	11526
1504	11528
1506	11531
1527	11533
1527	11536
1518	11538
1525	11541
1507	11543
1465	11546
1452	11548
1464	11551
1478	11553
1495	11555
1490	11558
1466	11560
1460	11564
1475	11566
1479	11569
1496	11571
1517	11574
1517	11576
1514	11579
1499	11581
1489	11584
1506	11586
1525	11588
1520	11591
1509	11593
1503	11596
1477	11598
1479	11601
1501	11603
1475	11607
1415	11609
1450	11612
1552	11614
1560	11616
1529	11619
1526	11621
1533	11624
1540	11626
1531	11629
1488	11631
1446	11634
1443	11636
1477	11639
1492	11641
1440	11643
1414	11646
1468	11649
1521	11652
1525	11654
1540	11657
1550	11659
1535	11662
1534	11664
1526	11667
1498	11669
1485	11672
1506	11674
1525	11676
1453	11679
1380	11681
1390	11684
1448	11686
1470	11689
1497	11692
1529	11695
1536	11697
1533	11700
1525	11702
1517	11704
1485	11707
1476	11709
1469	11712
1486	11714
1538	11717
1585	11719
1532	11722
1440	11724
1415	11727
1441	11729
1440	11731
1447	11735
1484	11737
1534	11740
1557	11742
1518	11745
1448	11747
1453	11750
1527	11752
1549	11755
1528	11757
1503	11760
1479	11762
1458	11764
1453	11767
1484	11769
1484	11772
1465	11774
1463	11778
1475	11780
1429	11783
1440	11785
1533	11788
1600	11790
1576	11792
1537	11795
1523	11797
1511	11800
1481	11802
1439	11805
1453	11807
1468	11810
1477	11812
1473	11815
1438	11817
1432	11820
1503	11823
1557	11825
1549	11828
1561	11830
1593	11833
1596	11835
1524	11838
1435	11840
1408	11843
1467	11845
1480	11848
1432	11850
1432	11852
1501	11855
1564	11857
1569	11860
1547	11863
1529	11866
1526	11868
1536	11871
1537	11873
1515	11876
1460	11878
1436	11880
1439	11883
1392	11885
1396	11888
1481	11890
1535	11893
1510	11895
1496	11898
1504	11900
1537	11904
1543	11906
1535	11908
1517	11911
1504	11913
1496	11916
1490	11918
1451	11921
1412	11923
1439	11926
1502	11928
1533	11931
1519	11933
1507	11935
1509	11938
1510	11940
1507	11943
1515	11945
1527	11949
1533	11951
1523	11954
1485	11956
1438	11959
1424	11961
1474	11964
1509	11966
1507	11968
1504	11971
1508	11973
1494	11976
1475	11978
1498	11981
1536	11983
1531	11986
1506	11988
1492	11992
1489	11994
1475	11996
1425	11999
1399	12001
1433	12004
1476	12006
1493	12009
1510	12011
1517	12014
1493	12016
1478	12019
1484	12021
1521	12023
1504	12026
1501	12028
1481	12032
1489	12034
1492	12037
1496	12039
1497	12042
1489	12044
1511	12047
1550	12049
1537	12052
1504	12054
1474	12056
1428	12059
1401	12061
1421	12064
1462	12066
1480	12069
1497	12071
1517	12075
1525	12077
1526	12080
1514	12082
1496	12084
1512	12087
1536	12089
1550	12092
1490	12094
1449	12097
1433	12099
1443	12102
1473	12104
1542	12107
1555	12109
1518	12111
1474	12114
1452	12116
1453	12120
1489	12122
1495	12125
1485	12127
1473	12130
1483	12132
1485	12135
1484	12137
1484	12139
1446	12142
1458	12144
1527	12147
1570	12149
1580	12152
1575	12154
1559	12157
1526	12160
1485	12163
1465	12165
1470	12168
1450	12170
1431	12172
1453	12175
1482	12177
1486	12180
1509	12182
1543	12185
1544	12187
1539	12190
1518	12192
1488	12195
1486	12197
1503	12199
1510	12203
1522	12205
1527	12208
1519	12210
1521	12213
1511	12215
1449	12218
1400	12220
1426	12223
1487	12225
1491	12227
1495	12230
1515	12232
1500	12235
1478	12237
1485	12240
1497	12242
1461	12246
1445	12248
1498	12251
1510	12253
1452	12256
1417	12258
1427	12260
1482	12263
1549	12265
1566	12268
1548	12270
1523	12273
1538	12275
1537	12278
1484	12280
1446	12283
1480	12285
1523	12288
1514	12291
1488	12293
1500	12296
1536	12298
1552	12301
1549	12303
1523	12306
1499	12308
1441	12311
1418	12313
1439	12315
1497	12318
1536	12320
1538	12323
1534	12325
1483	12328
1444	12331
1455	12334
1474	12336
1489	12339
1519	12341
1509	12344
1468	12346
1432	12348
1459	12351
1508	12353
1523	12356
1515	12358
1514	12361
1525	12363
1522	12366
1508	12368
1478	12371
1425	12374
1409	12376
1457	12379
1523	12381
1544	12384
1529	12386
1501	12389
1483	12391
1478	12394
1472	12396
1485	12399
1530	12401
1532	12403
1522	12406
1516	12408
1488	12411
1438	12413
1415	12417
1446	12419
1442	12422
1451	12424
1505	12427
1583	12429
1586	12431
1559	12434
1535	12436
1531	12439
1511	12441
1487	12444
1455	12446
1437	12449
1404	12451
1399	12454
1412	12456
1461	12460
1496	12462
1521	12464
1523	12467
1517	12469
1513	12472
1550	12474
1584	12477
1578	12479
1536	12482
1494	12484
1476	12487
1424	12489
1406	12491
1452	12494
1489	12496
1467	12499
1466	12502
1479	12505
1480	12507
1470	12510
1495	12512
1533	12515
1539	12517
1530	12519
1513	12522
1503	12524
1490	12527
1445	12529
1413	12532
1445	12534
1507	12537
1525	12539
1482	12542
1450	12545
1468	12548
1542	12550
1535	12552
1462	12555
1417	12557
1434	12560
1487	12562
1492	12565
1499	12567
1527	12570
1545	12572
1535	12575
1526	12577
1547	12579
1550	12582
1492	12584
1450	12588
1430	12590
1425	12593
1428	12595
1482	12598
1515	12600
1514	12603
1498	12605
1489	12607
1493	12610
1537	12612
1582	12615
1570	12617
1503	12620
1448	12622
1432	12625
1422	12627
1473	12631
1487	12633
1453	12636
1435	12638
1471	12640
1513	12643
1520	12645
1538	12648
1550	12650
1542	12653
1530	12655
1506	12658
1505	12660
1477	12663
1467	12665
1475	12667
1507	12670
1505	12673
1491	12676
1485	12678
1450	12681
1443	12683
1482	12686
1530	12688
1533	12691
1514	12693
1483	12695
1423	12698
1442	12700
1531	12703
1593	12705
1564	12708
1528	12710
1501	12713
1488	12716
1505	12719
1524	12721
1510	12723
1495	12726
1512	12728
1505	12731
1443	12733
1384	12736
1443	12738
1534	12741
1568	12743
1544	12746
1500	12748
1493	12751
1481	12753
1459	12755
1462	12759
1491	12761
1514	12764
1508	12766
1483	12769
1442	12771
1444	12774
1504	12776
1572	12779
1591	12781
1550	12783
1525	12786
1498	12788
1477	12791
1508	12793
1526	12796
1484	12798
1399	12802
1391	12804
1445	12807
1488	12809
1490	12811
1517	12814
1559	12816
1566	12819
1545	12821
1534	12824
1495	12826
1408	12829
1374	12831
1423	12834
1478	12836
1498	12839
1528	12841
1561	12844
1551	12847
1504	12849
1482	12852
1514	12854
1540	12857
1526	12859
1480	12862
1445	12864
1428	12867
1444	12869
1442	12871
1476	12874
1522	12876
1556	12879
1561	12881
1539	12884
1512	12887
1513	12890
1516	12892
1511	12895
1528	12897
1523	12899
1484	12902
1445	12904
1455	12907
1475	12909
1496	12912
1499	12914
1504	12917
1496	12919
1461	12922
1418	12924
1414	12928
1433	12930
1454	12932
1520	12935
1573	12937
1570	12940
1528	12942
1465	12945
1429	12947
1434	12950
1452	12952
1469	12955
1474	12957
1451	12959
1407	12962
1426	12964
1462	12967
1484	12969
1509	12973
1536	12975
1544	12978
1577	12980
1529	12983
1438	12985
1423	12987
1498	12990
1527	12992
1528	12995
1519	12997
1503	13000
1477	13002
1460	13005
1453	13007
1467	13010
1487	13012
1453	13015
1411	13018
1424	13020
1510	13023
1546	13025
1534	13028
1551	13030
1577	13033
1578	13035
1554	13038
1531	13040
1460	13043
1417	13045
1467	13047
1538	13050
1545	13052
1480	13056
1422	13058
1407	13061
1449	13063
1500	13066
1546	13068
1558	13071
1516	13073
1472	13075
1465	13078
1481	13080
1507	13083
1528	13085
1549	13088
1534	13090
1498	13093
1482	13095
1486	13099
1483	13101
1465	13103
1463	13106
1437	13108
1443	13111
1475	13113
1516	13116
1518	13118
1528	13121
1523	13123
1470	13126
1456	13128
1502	13131
1507	13133
1467	13135
1433	13138
1436	13140
1481	13144
1549	13146
1574	13149
1558	13151
1528	13154
1511	13156
1497	13159
1490	13161
1472	13163
1472	13166
1485	13168
1514	13171
1534	13173
1518	13176
1499	13178
1506	13181
1512	13184
1523	13187
1525	13189
1511	13191
1509	13194
1507	13196
1475	13199
1432	13201
1397	13204
1399	13206
1411	13209
1419	13211
1442	13214
1508	13216
1549	13219
1557	13221
1533	13223
1503	13227
1482	13229
1489	13232
1493	13234
1478	13237
1432	13239
1433	13242
1487	13244
1501	13247
1468	13249
1489	13251
1534	13254
1556	13256
1541	13259
1458	13261
1418	13264
1487	13266
1545	13270
1538	13272
1514	13275
1507	13277
1493	13279
1478	13282
1473	13284
1525	13287
1531	13289
1504	13292
1499	13294
1517	13297
1506	13299
1481	13302
1489	13304
1485	13306
1491	13309
1494	13312
1500	13315
1529	13317
1547	13320
1550	13322
1552	13325
1544	13327
1491	13330
1420	13332
1398	13335
1458	13337
1504	13339
1474	13342
1432	13344
1447	13347
1486	13349
1507	13352
1516	13355
1524	13358
1530	13360
1534	13363
1519	13365
1516	13367
1528	13370
1496	13372
1460	13375
1465	13377
1463	13380
1413	13382
1380	13385
1423	13387
1488	13390
1514	13392
1519	13394
1534	13398
1531	13400
1528	13403
1533	13405
1538	13408
1501	13410
1452	13413
1453	13415
1486	13418
1518	13420
1527	13423
1513	13425
1429	13427
1382	13430
1428	13432
1502	13435
1507	13437
1505	13441
1521	13443
1534	13446
1536	13448
1557	13451
1567	13453
1542	13455
1506	13458
1496	13460
1496	13463
1487	13465
1477	13468
1479	13470
1474	13473
1405	13475
1370	13478
1468	13480
1542	13483
1553	13486
1509	13488
1480	13491
1471	13493
1490	13496
1513	13498
1508	13501
1484	13503
1464	13506
1454	13508
1437	13511
1455	13513
1475	13515
1483	13518
1475	13520
1461	13523
1489	13526
1515	13529
1539	13531
1540	13534
1537	13536
1514	13539
1491	13541
1487	13543
1451	13546
1414	13548
1431	13551
1485	13553
1524	13556
1505	13558
1463	13561
1451	13563
1476	13566
1499	13569
1504	13571
1539	13574
1546	13576
1512	13579
1451	13581
1430	13584
1440	13586
1461	13589
1477	13591
1462	13594
1448	13596
1446	13598
1459	13601
1460	13603
1463	13606
1457	13608
1452	13612
1484	13614
1536	13617
1577	13619
1598	13622
1573	13624
1533	13627
1487	13629
1448	13631
1427	13634
1433	13636
1437	13639
1419	13641
1405	13644
1392	13646
1408	13649
1445	13651
1473	13655
1491	13657
1509	13659
1531	13662
1541	13664
1516	13667
1455	13669
1421	13672
1457	13674
1508	13677
1510	13679
1507	13682
1503	13684
1498	13686
1501	13689
1481	13691
1460	13694
1434	13697
1425	13700
1440	13702
1472	13705
1486	13707
1495	13710
1502	13712
1499	13715
1500	13717
1528	13719
1557	13722
1559	13724
1503	13727
1458	13729
1461	13732
1478	13734
1471	13737
1482	13740
1537	13743
1573	13745
1552	13747
1488	13750
1460	13752
1453	13755
1439	13757
1428	13760
1430	13762
1448	13765
1465	13767
1468	13770
1487	13772
1563	13774
1611	13777
1578	13779
1568	13783
1566	13785
1545	13788
1530	13790
1501	13793
1433	13795
1395	13798
1419	13800
1492	13803
1524	13805
1543	13807
1544	13810
1500	13812
1416	13815
1373	13817
1452	13820
1560	13822
1608	13826
1609	13828
1554	13831
1494	13833
1488	13835
1503	13838
1503	13840
1479	13843
1451	13845
1434	13848
1457	13850
1501	13853
1533	13855
1537	13858
1516	13860
1495	13862
1497	13865
1508	13868
1481	13871
1472	13873
1498	13876
1503	13878
1473	13881
1464	13883
1478	13886
1503	13888
1513	13891
1498	13893
1479	13895
1481	13898
1491	13900
1447	13903
1416	13905
1444	13908
1508	13911
1530	13914
1561	13916
1573	13919
1575	13921
1531	13923
1505	13926
1474	13928
1457	13931
1462	13933
1483	13936
1489	13938
1445	13941
1392	13943
1423	13946
1486	13948
1500	13950
1482	13954
1461	13956
1468	13959
1515	13961
1537	13964
1532	13966
1513	13969
1505	13971
1524	13974
1531	13976
1507	13978
1475	13981
1481	13983
1471	13986
1468	13988
1495	13991
1497	13993
1467	13997
1446	13999
1496	14002
1527	14004
1529	14007
1509	14009
1507	14011
1487	14014
1491	14016
1497	14019
1499	14021
1496	14024
1557	14026
1610	14029
1596	14031
1532	14034
1485	14036
1476	14039
1476	14042
1484	14044
1486	14047
1482	14049
1486	14052
1529	14054
1518	14057
1479	14059
1486	14062
1487	14064
1468	14066
1449	14069
1456	14071
1491	14074
1508	14076
1512	14080
1521	14082
1507	14085
1488	14087
1491	14090
1536	14092
1541	14095
1531	14097
1508	14099
1469	14102
1465	14104
1507	14107
1551	14109
1554	14112
1545	14114
1528	14117
1510	14119
1499	14123
1488	14125
1469	14127
1450	14130
1443	14132
1448	14135
1439	14137
1461	14140
1526	14142
1600	14145
1600	14147
1558	14150
1522	14152
1487	14154
1457	14157
1447	14159
1425	14162
1426	14164
1463	14168
1510	14170
1517	14173
1505	14175
1499	14178
1500	14180
1529	14183
1529	14185
1492	14187
1506	14190
1581	14192
1557	14195
1499	14197
1527	14200
1559	14202
1550	14205
1546	14208
1502	14211
1457	14213
1462	14215
1494	14218
1495	14220
1510	14223
1520	14225
1502	14228
1484	14230
1487	14233
1491	14235
1496	14238
1485	14240
1461	14242
1447	14245
1472	14247
1525	14251
1551	14253
1541	14256
1533	14258
1518	14261
1487	14263
1484	14266
1529	14268
1559	14270
1592	14273
1610	14275
1559	14278
1508	14280
1464	14283
1433	14285
1413	14288
1414	14290
1413	14294
1444	14296
1497	14299
1527	14301
1538	14303
1556	14306
1564	14308
1534	14311
1506	14313
1542	14316
1556	14318
1503	14321
1495	14323
1525	14326
1521	14328
1515	14330
1497	14333
1464	14336
1456	14339
1477	14341
1472	14344
1466	14346
1491	14349
1519	14351
1526	14354
1521	14356
1506	14358
1516	14361
1538	14363
1513	14366
1470	14368
1428	14371
1431	14373
1468	14376
1498	14379
1491	14382
1472	14384
1447	14387
1458	14389
1487	14391
1521	14394
1562	14396
1584	14399
1563	14401
1530	14404
1535	14406
1533	14409
1515	14411
1473	14414
1465	14416
1462	14418
1443	14422
1442	14424
1461	14427
1493	14429
1532	14432
1539	14434
1515	14437
1485	14439
1545	14442
1605	14444
1608	14446
1579	14449
1535	14451
1494	14454
1463	14456
1441	14459
1408	14461
1399	14465
1459	14467
1494	14470
1466	14472
1461	14475
1494	14477
1514	14479
1556	14482
1617	14484
1611	14487
1587	14489
1573	14492
1556	14494
1507	14497
1488	14499
1475	14502
1444	14504
1453	14507
1482	14510
1437	14512
1406	14515
1440	14517
1526	14520
1568	14522
1549	14525
1509	14527
1500	14530
1519	14532
1533	14534
1526	14537
1520	14539
1520	14542
1510	14544
1487	14547
1462	14550
1442	14553
1437	14555
1449	14558
1444	14560
1450	14562
1462	14565
1481	14567
1497	14570
1516	14572
1486	14575
1452	14577
1447	14580
1466	14582
1469	14585
1448	14587
1445	14590
1454	14593
1463	14595
1467	14598
1498	14600
1528	14603
1518	14605
1487	14608
1492	14610
1518	14613
1506	14615
1465	14618
1432	14620
1435	14622
1458	14625
1504	14627
1569	14630
1584	14632
1554	14636
1517	14638
1499	14641
1485	14643
1480	14646
1503	14648
1537	14650
1548	14653
1521	14655
1475	14658
1457	14660
1496	14663
1545	14665
1533	14668
1510	14670
1509	14673
1490	14675
1427	14679
1383	14681
1415	14683
1480	14686
1505	14688
1503	14691
1511	14693
1576	14696
1601	14698
1568	14701
1481	14703
1402	14706
1390	14708
1479	14710
1572	14713
1559	14715
1498	14718
1465	14721
1472	14724
1488	14726
1488	14729
1495	14731
1497	14734
1510	14736
1516	14738
1504	14741
1488	14743
1484	14746
1472	14748
1432	14751
1427	14753
1481	14756
1537	14758
1546	14761
1523	14764
1510	14767
1509	14769
1509	14771
1505	14774
1495	14776
1506	14779
1528	14781
1525	14784
1494	14786
1430	14789
1417	14791
1455	14794
1490	14796
1509	14798
1529	14801
1521	14803
1487	14807
1467	14809
1476	14812
1535	14814
1548	14817
1522	14819
1522	14822
1530	14824
1528	14826
1518	14829
1468	14831
1438	14834
1478	14836
1505	14839
1485	14841
1474	14844
1488	14846
1520	14850
1524	14852
1494	14854
1483	14857
1504	14859
1514	14862
1509	14864
1477	14867
1456	14869
1470	14872
1491	14874
1525	14877
1545	14879
1517	14882
1460	14884
1455	14886
1540	14889
1571	14892
1550	14895
1517	14897
1474	14900
1458	14902
1446	14905
1451	14907
1466	14910
1458	14912
1452	14914
1487	14917
1533	14919
1524	14922
1448	14924
1405	14927
1433	14929
1519	14932
1534	14935
1522	14938
1533	14940
1551	14942
1526	14945
1495	14947
1484	14950
1473	14952
1442	14955
1429	14957
1468	14960
1500	14962
1507	14965
1495	14967
1456	14970
1405	14972
1399	14974
1467	14978
1531	14980
1540	14983
1528	14985
1536	14988
1535	14990
1518	14993
1499	14995
1495	14998
1511	15000
1566	15002
1583	15005
1529	15007
1476	15010
1447	15012
1465	15015
1423	15017
1367	15021
1399	15023
1493	15026
1540	15028
1544	15030
1543	15033
1519	15035
1492	15038
1469	15040
1473	15043
1511	15045
1541	15048
1518	15050
1466	15053
1480	15055
1530	15058
1545	15060
1530	15063
1480	15066
1428	15068
1428	15071
1460	15073
1490	15076
1515	15078
1537	15081
1562	15083
1546	15086
1505	15088
1504	15090
1507	15093
1498	15095
1502	15098
1494	15100
1475	15104
1475	15106
1492	15109
1486	15111
1463	15114
1452	15116
1460	15118
1462	15121
1506	15123
1532	15126
1524	15128
1503	15131
1498	15133
1446	15136
1393	15138
1427	15141
1508	15143
1493	15145
1461	15149
1475	15151
1513	15154
1543	15156
1564	15159
1539	15161
1478	15164
1465	15166
1502	15169
1513	15171
1508	15174
1472	15176
1450	15178
1469	15181
1472	15183
1475	15186
1508	15188
1520	15192
1512	15194
1502	15197
1501	15199
1509	15202
1502	15204
1486	15206
1488	15209
1492	15211
1485	15214
1468	15216
1464	15219
1456	15221
1452	15224
1454	15226
1472	15229
1481	15232
1478	15234
1510	15237
1557	15239
1579	15242
1556	15244
1538	15247
1529	15249
1494	15252
1486	15254
1501	15257
1499	15259
1440	15262
1433	15264
1460	15266
1487	15269
1474	15271
1469	15275
1497	15277
1544	15280
1558	15282
1545	15285
1505	15287
1484	15290
1480	15292
1473	15294
1464	15297
1462	15299
1496	15302
1515	15304
1500	15307
1458	15309
1406	15312
1398	15314
1458	15318
1540	15320
1551	15322
1501	15325
1480	15327
1526	15330
1585	15332
1593	15335
1514	15337
1443	15340
1433	15342
1473	15345
1484	15347
1497	15350
1540	15352
1536	15354
1512	15357
1494	15360
1490	15363
1453	15365
1457	15368
1519	15370
1534	15373
1518	15375
1504	15378
1495	15380
1488	15382
1465	15385
1430	15387
1420	15390
1460	15392
1508	15395
1534	15397
1525	15400
1493	15403
1460	15406
1448	15408
1485	15410
1484	15413
1455	15415
1482	15418
1542	15420
1533	15423
1508	15425
1532	15428
1537	15430
1491	15433
1438	15435
1428	15438
1453	15440
1447	15442
1436	15446
1419	15448
1372	15451
1354	15453
1412	15456
1503	15458
1541	15461
1567	15463
1544	15466
1527	15468
1524	15470
1488	15473
1496	15475
1510	15478
1502	15480
1461	15483
1436	15485
1431	15489
1420	15491
1423	15494
1448	15496
1508	15498
1559	15501
1557	15503
1538	15506
1505	15508
1479	15511
1485	15513
1484	15516
1473	15518
1493	15521
1531	15523
1514	15525
1521	15528
1583	15531
1598	15534
1565	15536
1512	15539
1489	15541
1495	15544
1493	15546
1482	15549
1471	15551
1404	15554
1368	15556
1404	15558
1496	15561
1530	15563
1547	15566
1535	15568
1514	15571
1495	15574
1493	15577
1487	15579
1494	15582
1525	15584
1539	15586
1554	15589
1555	15591
1547	15594
1510	15596
1496	15599
1526	15601
1524	15604
1479	15606
1425	15609
1414	15611
1447	15613
1516	15617
1541	15619
1552	15622
1573	15624
1557	15627
1522	15629
1516	15632
1543	15634
1555	15637
1549	15639
1543	15642
1537	15644
1461	15646
1381	15649
1377	15651
1415	15654
1462	15656
1499	15660
1524	15662
1525	15665
1523	15667
1537	15670
1573	15672
1572	15674
1560	15677
1535	15679
1484	15682
1451	15684
1469	15687
1474	15689
1451	15692
1412	15694
1420	15697
1454	15699
1497	15702
1507	15705
1494	15707
1491	15710
1502	15712
1556	15715
1607	15717
1610	15720
1562	15722
1519	15725
1476	15727
1456	15730
1422	15732
1407	15734
1427	15737
1444	15739
1423	15742
1433	15745
1495	15748
1512	15750
1498	15753
1526	15755
1536	15758
1534	15760
1545	15762
1566	15765
1526	15767
1459	15770
1467	15772
1491	15775
1467	15777
1386	15780
1388	15782
1489	15785
1573	15788
1576	15790
1554	15793
1528	15795
1538	15798
1558	15800
1545	15803
1510	15805
1467	15808
1432	15810
1434	15813
1462	15815
1483	15818
1480	15820
1447	15822
1460	15825
1543	15827
1564	15831
1506	15833
1459	15836
1464	15838
1453	15841
1423	15843
1426	15846
1455	15848
1510	15850
1531	15853
1524	15855
1500	15858
1437	15860
1400	15863
1450	15865
1522	15868
1574	15870
1587	15874
1546	15876
1480	15878
1458	15881
1464	15883
1461	15886
1458	15888
1486	15891
1500	15893
1491	15896
1477	15898
1477	15901
1466	15903
1454	15905
1461	15908
1493	15910
1562	15913
1574	15916
1555	15919
1541	15921
1529	15924
1496	15926
1473	15929
1448	15931
1449	15934
1460	15936
1505	15938
1521	15941
1478	15943
1432	15946
1407	15948
1427	15951
1488	15953
1569	15956
1595	15959
1539	15962
1463	15964
1429	15966
1483	15969
1550	15971
1583	15974
1594	15976
1554	15979
1476	15981
1461	15984
1505	15986
1506	15989
1467	15991
1475	15993
1519	15996
1574	15998
1594	16002
1559	16004
1522	16007
1489	16009
1495	16012
1510	16014
1493	16017
1433	16019
1420	16022
1459	16024
1455	16026
1442	16029
1457	16031
1488	16034
1517	16036
1523	16039
1502	16041
1504	16045
1490	16047
1496	16050
1534	16052
1546	16054
1538	16057
1490	16059
1464	16062
1461	16064
1489	16067
1491	16069
1422	16072
1397	16074
1454	16077
1528	16079
1535	16081
1518	16084
1493	16087
1463	16090
1467	16092
1505	16095
1516	16097
1504	16100
1480	16102
1460	16105
1460	16107
1465	16109
1462	16112
1453	16114
1442	16117
1425	16119
1441	16122
1496	16124
1536	16128
1521	16130
1477	16133
1457	16135
1477	16138
1502	16140
1503	16142
1508	16145
1512	16147
1498	16150
1441	16152
1414	16155
1424	16157
1439	16160
1452	16162
1481	16165
1510	16167
1519	16169
1497	16173
1474	16175
1440	16178
1410	16180
1401	16183
1452	16185
1514	16188
1552	16190
1563	16193
1544	16195
1494	16197
1460	16200
1428	16202
1426	16205
1469	16207
1484	16210
1492	16212
1510	16216
1559	16218
1587	16221
1563	16223
1509	16225
1469	16228
1484	16230
1518	16233
1490	16235
1463	16238
1491	16240
1538	16243
1541	16245
1509	16248
1474	16250
1479	16253
1505	16256
1500	16258
1440	16261
1416	16263
1477	16266
1503	16268
1502	16271
1546	16273
1605	16276
1582	16278
1536	16281
1483	16283
1449	16285
1448	16288
1463	16290
1462	16293
1470	16295
1499	16299
1476	16301
1437	16304
1441	16306
1521	16309
1559	16311
1552	16313
1504	16316
1443	16318
1435	16321
1466	16323
1499	16326
1512	16328
1524	16331
1536	16333
1552	16336
1601	16338
1616	16342
1585	16344
1500	16346
1424	16349
1390	16351
1402	16354
1422	16356
1467	16359
1505	16361
1521	16364
1553	16366
1583	16369
1573	16371
1539	16373
1490	16376
1414	16378
1354	16381
1366	16384
1456	16387
1505	16389
1494	16392
1505	16394
1538	16397
1538	16399
1511	16401
1505	16404
1510	16406
1507	16409
1506	16411
1535	16414
1540	16416
1540	16419
1526	16421
1545	16424
1526	16427
1485	16429
1420	16432
1389	16434
1416	16437
1454	16439
1449	16442
1450	16444
1473	16447
1489	16449
1502	16452
1524	16454
1526	16457
1492	16459
1483	16461
1539	16464
1581	16466
1540	16470
1455	16472
1398	16475
1420	16477
1482	16480
1499	16482
1512	16485
1524	16487
1509	16489
1470	16492
1431	16494
1441	16497
1472	16499
1510	16502
1512	16504
1509	16507
1531	16509
1542	16513
1532	16515
1485	16517
1431	16520
1434	16522
1464	16525
1428	16527
1384	16530
1402	16532
1472	16535
1495	16537
1507	16540
1518	16542
1524	16545
1513	16547
1508	16549
1538	16552
1566	16555
1547	16558
1514	16560
1475	16563
1433	16565
1394	16568
1336	16570
1361	16573
1470	16575
1537	16577
1538	16580
1519	16582
1497	16585
1485	16587
1503	16590
1528	16592
1533	16595
1516	16598
1510	16601
1479	16603
1457	16605
1496	16608
1527	16610
1533	16613
1515	16615
1453	16618
1373	16620
1377	16623
1459	16625
1499	16628
1499	16630
1502	16632
1523	16635
1517	16637
1534	16641
1569	16643
1547	16646
1489	16648
1483	16651
1488	16653
1459	16656
1447	16658
1458	16661
1483	16663
1502	16665
1510	16668
1515	16670
1517	16673
1509	16675
1489	16678
1465	16680
1437	16684
1407	16686
1395	16689
1430	16691
1499	16693
1539	16696
1552	16698
1557	16701
1532	16703
1515	16706
1509	16708
1510	16711
1501	16713
1488	16716
1467	16718
1456	16720
1453	16723
1454	16726
1485	16729
1508	16731
1516	16734
1515	16736
1511	16739
1484	16741
1475	16744
1484	16746
1493	16749
1475	16751
1456	16753
1464	16756
1485	16758
1506	16761
1507	16763
1509	16766
1498	16769
1474	16772
1458	16774
1440	16777
1433	16779
1488	16781
1578	16784
1583	16786
1521	16789
1457	16791
1438	16794
1444	16796
1450	16799
1445	16801
1453	16804
1449	16806
1445	16808
1486	16812
1509	16814
1477	16817
1461	16819
1492	16822
1510	16824
1492	16827
1481	16829
1494	16832
1522	16834
1557	16837
1578	16839
1544	16841
1507	16844
1506	16846
1537	16849
1523	16851
1456	16855
1423	16857
1435	16860
1468	16862
1488	16865
1482	16867
1454	16869
1439	16872
1498	16874
1558	16877
1567	16879
1537	16882
1519	16884
1518	16887
1524	16889
1541	16892
1553	16894
1502	16897
1417	16900
1337	16902
1364	16905
1452	16907
1488	16910
1486	16912
1498	16915
1498	16917
1490	16920
1474	16922
1458	16924
1434	16927
1417	16929
1473	16932
1560	16934
1577	16937
1550	16940
1535	16943
1494	16945
1433	16948
1441	16950
1504	16953
1528	16955
1518	16957
1516	16960
1552	16962
1590	16965
1566	16967
1503	16970
1455	16972
1492	16975
1523	16977
1508	16980
1484	16983
1509	16985
1521	16988
1506	16990
1496	16993
1496	16995
1481	16998
1501	17000
1553	17003
1570	17005
1526	17008
1457	17010
1456	17012
1514	17015
1568	17017
1561	17020
1487	17022
1427	17026
1440	17028
1465	17031
1462	17033
1485	17036
1542	17038
1510	17041
1451	17043
1470	17045
1556	17048
1563	17050
1516	17053
1501	17055
1516	17058
1530	17060
1530	17063
1506	17065
1482	17069
1481	17071
1494	17073
1515	17076
1531	17078
1498	17081
1441	17083
1429	17086
1454	17088
1453	17091
1467	17093
1541	17096
1592	17098
1580	17100
1531	17103
1476	17105
1441	17108
1451	17111
1460	17114
1438	17116
1454	17119
1499	17121
1512	17124
1484	17126
1484	17129
1517	17131
1545	17133
1549	17136
1534	17138
1508	17141
1440	17143
1420	17146
1459	17148
1495	17152
1471	17154
1425	17157
1427	17159
1472	17161
1513	17164
1537	17166
1572	17169
1592	17171
1545	17174
1490	17176
1456	17179
1434	17181
1418	17184
1443	17186
1467	17188
1453	17191
1432	17193
1431	17197
1467	17199
1480	17202
1481	17204
1483	17207
1480	17209
1458	17212
1444	17214
1467	17217
1502	17219
1494	17221
1475	17224
1496	17226
1519	17229
1507	17231
1489	17234
1504	17236
1514	17240
1483	17242
1458	17245
1490	17247
1510	17249
1499	17252
1479	17254
1436	17257
1397	17259
1413	17262
1480	17264
1522	17267
1512	17269
1462	17272
1429	17274
1425	17276
1467	17280
1516	17282
1513	17285
1487	17287
1480	17290
1491	17292
1515	17295
1518	17297
1488	17300
1498	17302
1518	17305
1528	17307
1521	17309
1503	17312
1478	17314
1457	17317
1440	17319
1442	17323
1460	17325
1482	17328
1482	17330
1493	17333
1537	17335
1501	17337
1441	17340
1454	17342
1480	17345
1486	17347
1484	17350
1482	17352
1472	17355
1472	17357
1507	17360
1548	17362
1544	17364
1497	17368
1467	17370
1471	17373
1461	17375
1454	17378
1441	17380
1457	17383
1488	17385
1530	17388
1544	17390
1495	17393
1447	17395
1449	17397
1467	17400
1484	17402
1486	17405
1489	17408
1502	17411
1509	17413
1503	17416
1480	17418
1457	17421
1474	17423
1489	17425
1492	17428
1479	17430
1461	17433
1449	17435
1483	17438
1511	17440
1505	17443
1493	17445
1491	17448
1500	17451
1496	17453
1490	17456
1494	17458
1490	17461
1488	17463
1512	17466
1545	17468
1552	17471
1519	17473
1486	17476
1464	17478
1428	17481
1414	17483
1463	17485
1532	17488
1538	17490
1518	17494
1485	17496
1444	17499
1440	17501
1451	17504
1460	17506
1466	17509
1482	17511
1490	17513
1494	17516
1494	17518
1505	17521
1509	17523
1500	17526
1482	17528
1472	17531
1501	17533
1527	17537
1528	17539
1508	17541
1506	17544
1501	17546
1497	17549
1506	17551
1501	17554
1488	17556
1479	17559
1466	17561
1446	17564
1450	17566
1456	17569
1472	17571
1497	17573
1488	17576
1462	17579
1436	17582
1472	17584
1515	17587
1531	17589
1520	17592
1510	17594
1516	17597
1514	17599
1504	17601
1492	17604
1483	17606
1462	17609
1435	17611
1435	17614
1489	17616
1519	17619
1507	17622
1484	17625
1477	17627
1484	17629
1500	17632
1496	17634
1509	17637
1539	17639
1551	17642
1537	17644
1527	17647
1526	17649
1520	17652
1484	17654
1462	17657
1478	17659
1519	17661
1505	17665
1476	17667
1458	17670
1458	17672
1471	17675
1482	17677
1503	17680
1526	17682
1526	17685
1505	17687
1479	17689
1481	17692
1537	17694
1557	17697
1539	17699
1483	17702
1446	17704
1445	17708
1464	17710
1476	17713
1478	17715
1429	17717
1394	17720
1416	17722
1485	17725
1510	17727
1497	17730
1480	17732
1471	17735
1479	17737
1484	17740
1489	17742
1502	17745
1496	17747
1481	17750
1453	17753
1418	17755
1409	17758
1436	17760
1464	17763
1472	17765
1469	17768
1466	17770
1485	17773
1501	17775
1488	17777
1455	17780
1442	17782
1452	17785
1430	17787
1412	17790
1430	17793
1487	17796
1525	17798
1548	17801
1565	17803
1567	17805
1540	17808
1539	17810
1548	17813
1538	17815
1510	17818
1484	17820
1450	17823
1428	17825
1460	17828
1515	17830
1515	17832
1483	17836
1465	17838
1482	17841
1546	17843
1596	17846
1592	17848
1554	17851
1522	17853
1497	17856
1471	17858
1443	17861
1430	17863
1437	17865
1460	17868
1479	17870
1470	17873
1472	17875
1503	17879
1499	17881
1480	17884
1477	17886
1498	17889
1491	17891
1467	17893
1463	17896
1485	17898
1504	17901
1500	17903
1480	17906
1455	17908
1433	17911
1423	17913
1438	17916
1484	17918
1528	17921
1560	17924
1563	17926
1554	17929
1531	17931
1513	17934
1508	17936
1508	17939
1501	17941
1528	17944
1544	17946
1528	17949
1474	17951
1417	17953
1396	17956
1414	17958
1439	17961
1456	17964
1471	17967
1503	17969
1522	17972
1496	17974
1474	17977
1480	17979
1505	17981
1507	17984
1493	17986
1484	17989
1495	17991
1491	17994
1492	17996
1508	17999
1529	18001
1543	18004
1521	18007
1478	18009
1449	18012
1476	18014
1497	18017
1483	18019
1467	18022
1462	18024
1463	18027
1459	18029
1455	18032
1468	18034
1492	18036
1504	18039
1514	18041
1558	18044
1566	18046
1540	18050
1490	18052
1456	18055
1446	18057
1446	18060
1451	18062
1463	18065
1479	18067
1489	18069
1487	18072
1484	18074
1485	18077
1475	18079
1461	18082
1458	18084
1491	18087
1523	18089
1504	18093
1476	18095
1478	18097
1482	18100
1482	18102
1497	18105
1511	18107
1515	18110
1520	18112
1522	18115
1523	18117
1520	18120
1534	18122
1508	18124
1454	18127
1452	18129
1494	18132
1511	18135
1501	18138
1497	18140
1511	18143
1503	18145
1489	18148
1495	18150
1537	18153
1584	18155
1568	18157
1523	18160
1495	18162
1506	18165
1506	18167
1494	18170
1491	18172
1461	18176
1420	18178
1404	18181
1422	18183
1462	18185
1500	18188
1548	18190
1588	18193
1633	18195
1635	18198
1560	18200
1496	18203
1494	18205
1507	18208
1473	18210
1426	18212
1431	18215
1504	18217
1541	18221
1516	18223
1514	18226
1530	18228
1530	18231
1492	18233
1464	18236
1489	18238
1510	18241
1496	18243
1497	18245
1516	18248
1492	18250
1443	18253
1437	18255
1507	18258
1553	18260
1551	18264
1577	18266
1566	18269
1517	18271
1477	18273
1517	18276
1602	18278
1626	18281
1618	18283
1581	18286
1533	18288
1462	18291
1417	18293
1436	18296
1473	18298
1481	18300
1487	18304
1521	18306
1528	18309
1521	18311
1525	18314
1568	18316
1603	18319
1587	18321
1540	18324
1482	18326
1430	18329
1397	18331
1399	18333
1444	18336
1515	18338
1539	18341
1497	18343
1476	18347
1510	18349
1537	18352
1553	18354
1550	18357
1548	18359
1540	18361
1525	18364
1500	18366
1471	18369
1465	18371
1458	18374
1458	18376
1449	18379
1453	18381
1459	18384
1467	18386
1472	18388
1481	18392
1492	18394
1492	18397
1508	18399
1528	18402
1554	18404
1577	18407
1549	18409
1487	18412
1482	18414
1514	18417
1552	18419
1554	18421
1515	18424
1457	18426
1415	18429
1423	18432
1464	18435
1485	18437
1472	18440
1457	18442
1506	18445
1570	18447
1571	18449
1541	18452
1523	18454
1511	18457
1501	18459
1533	18462
1558	18464
1569	18467
1535	18469
1460	18472
1401	18475
1424	18477
1476	18480
1489	18482
1496	18485
1513	18487
1524	18490
1530	18492
1509	18495
1509	18497
1521	18500
1521	18502
1499	18504
1454	18507
1431	18509
1445	18512
1506	18514
1544	18518
1549	18520
1512	18523
1486	18525
1491	18528
1517	18530
1517	18533
1509	18535
1499	18537
1451	18540
1426	18542
1475	18545
1545	18547
1532	18550
1482	18552
1440	18555
1468	18557
1497	18561
1528	18563
1529	18565
1494	18568
1456	18570
1461	18573
1493	18575
1502	18578
1500	18580
1482	18583
1473	18585
1486	18588
1508	18590
1502	18592
1480	18595
1468	18597
1500	18600
1534	18603
1521	18606
1489	18608
1461	18611
1460	18613
1463	18616
1446	18618
1432	18621
1426	18623
1411	18625
1410	18628
1433	18630
1466	18633
1462	18635
1451	18638
1475	18640
1503	18643
1535	18646
1552	18649
1541	18651
1521	18653
1535	18656
1571	18658
1578	18661
1486	18663
1395	18666
1404	18668
1464	18671
1519	18673
1515	18676
1499	18678
1474	18680
1417	18683
1393	18685
1448	18689
1542	18691
1560	18694
1513	18696
1492	18699
1537	18701
1573	18704
1542	18706
1515	18708
1498	18711
1478	18713
1446	18716
1426	18718
1446	18721
1479	18723
1500	18726
1501	18728
1496	18732
1499	18734
1500	18737
1484	18739
1468	18741
1463	18744
1461	18746
1466	18749
1479	18751
1515	18754
1561	18756
1587	18759
1585	18761
1529	18764
1478	18766
1473	18768
1496	18771
1501	18774
1480	18777
1463	18779
1455	18782
1456	18784
1464	18787
1481	18789
1485	18792
1461	18794
1440	18796
1458	18799
1492	18801
1502	18804
1481	18806
1442	18809
1415	18811
1431	18814
1467	18817
1476	18820
1470	18822
1501	18825
1520	18827
1508	18829
1489	18832
1493	18834
1532	18837
1550	18839
1511	18842
1475	18844
1486	18847
1497	18849
1511	18852
1549	18854
1574	18856
1561	18860
1499	18862
1423	18865
1379	18867
1394	18870
1440	18872
1489	18875
1525	18877
1519	18880
1515	18882
1518	18884
1508	18887
1495	18889
1487	18892
1478	18894
1504	18897
1555	18899
1568	18903
1546	18905
1505	18908
1485	18910
1471	18913
1481	18915
1515	18917
1506	18920
1530	18922
1569	18925
1525	18927
1425	18930
1394	18932
1450	18935
1533	18937
1553	18940
1540	18942
1542	18945
1588	18948
1609	18950
1550	18953
1484	18955
1425	18958
1446	18960
1450	18963
1422	18965
1428	18968
1469	18970
1464	18972
1488	18975
1552	18977
1611	18980
1581	18982
1508	18985
1474	18988
1476	18991
1494	18993
1514	18996
1498	18998
1470	19001
1473	19003
1506	19005
1508	19008
1508	19010
1535	19013
1575	19015
1595	19018
1580	19020
1561	19023
1503	19025
1464	19028
1452	19031
1490	19033
1491	19036
1494	19038
1481	19041
1477	19043
1486	19046
1482	19048
1457	19051
1468	19053
1500	19056
1522	19058
1531	19060
1551	19063
1558	19065
1546	19068
1503	19070
1468	19074
1442	19076
1423	19079
1447	19081
1497	19084
1511	19086
1498	19089
1477	19091
1476	19093
1498	19096
1529	19098
1531	19101
1530	19103
1527	19106
1524	19108
1497	19111
1449	19113
1432	19117
1454	19119
1451	19121
1420	19124
1421	19126
1456	19129
1475	19131
1480	19134
1452	19136
1432	19139
1459	19141
1529	19144
1568	19146
1552	19148
1519	19151
1497	19153
1509	19156
1540	19159
1546	19162
1495	19164
1457	19167
1479	19169
1507	19172
1502	19174
1491	19177
1497	19179
1501	19181
1505	19184
1472	19186
1445	19189
1460	19191
1532	19194
1561	19196
1530	19200
1499	19202
1494	19205
1489	19207
1468	19209
1446	19212
1442	19214
1489	19217
1563	19219
1578	19222
1540	19224
1515	19227
1501	19229
1458	19232
1431	19234
1447	19236
1492	19239
1503	19241
1486	19245
1484	19247
1511	19250
1526	19252
1501	19255
1473	19257
1491	19260
1532	19262
1516	19264
1457	19267
1432	19269
1487	19272
1530	19274
1505	19277
1448	19279
1430	19282
1481	19284
1574	19288
1612	19290
1603	19293
1565	19295
1528	19297
1506	19300
1493	19302
1507	19305
1468	19307
1408	19310
1419	19312
1506	19315
1542	19317
1531	19320
1508	19322
1514	19324
1501	19328
1487	19330
1485	19333
1497	19335
1482	19338
1493	19340
1544	19343
1566	19345
1544	19348
1524	19350
1510	19352
1482	19355
1470	19357
1493	19360
1543	19362
1580	19365
1588	19367
1567	19371
1539	19373
1501	19376
1451	19378
1422	19381
1454	19383
1483	19385
1478	19388
1469	19390
1497	19393
1540	19395
1575	19398
1592	19400
1574	19403
1543	19405
1508	19408
1479	19410
1438	19412
1423	19416
1445	19418
1515	19421
1553	19423
1523	19426
1454	19428
1412	19431
1420	19433
1474	19436
1504	19438
1527	19440
1541	19443
1535	19445
1517	19448
1501	19450
1503	19453
1497	19456
1484	19459
1476	19461
1486	19464
1501	19466
1503	19469
1506	19471
1522	19473
1547	19476
1547	19478
1463	19481
1406	19483
1427	19486
1491	19488
1508	19491
1493	19493
1509	19496
1534	19499
1523	19501
1474	19504
1456	19506
1491	19509
1538	19511
1552	19514
1510	19516
1481	19519
1467	19521
1502	19524
1521	19526
1508	19528
1499	19531
1498	19533
1499	19536
1507	19538
1532	19542
1541	19544
1527	19547
1512	19549
1496	19552
1487	19554
1473	19556
1468	19559
1472	19561
1470	19564
1445	19566
1440	19569
1449	19571
1454	19574
1469	19576
1505	19579
1523	19581
1522	19585
1516	19587
1499	19589
1498	19592
1499	19594
1501	19597
1508	19599
1518	19602
1520	19604
1508	19607
1496	19609
1502	19612
1475	19614
1446	19616
1452	19619
1490	19621
1492	19624
1438	19627
1408	19630
1449	19632
1507	19635
1521	19637
1517	19640
1507	19642
1494	19644
1491	19647
1506	19649
1527	19652
1547	19654
1565	19657
1562	19659
1529	19662
1505	19664
1491	19667
1463	19670
1419	19673
1385	19675
1395	19677
1459	19680
1513	19682
1510	19685
1487	19687
1478	19690
1476	19692
1472	19695
1465	19697
1464	19700
1472	19702
1487	19704
1516	19707
1538	19709
1510	19713
1464	19715
1451	19718
1475	19720
1504	19723
1501	19725
1500	19728
1470	19730
1454	19732
1462	19735
1516	19737
1534	19740
1533	19742
1519	19745
1521	19747
1535	19750
1556	19752
1563	19756
1545	19758
1500	19761
1461	19763
1465	19765
1495	19768
1520	19770
1502	19773
1472	19775
1487	19778
1542	19780
1560	19783
1527	19785
1508	19788
1540	19790
1601	19792
1601	19795
1572	19798
1552	19801
1549	19803
1539	19806
1531	19808
1548	19811
1525	19813
1489	19816
1485	19818
1493	19820
1467	19823
1476	19825
1526	19828
1577	19830
1560	19833
1531	19835
1510	19838
1494	19841
1480	19844
1445	19846
1440	19848
1490	19851
1533	19853
1581	19856
1586	19858
1550	19861
1506	19863
1494	19866
1507	19868
1527	19871
1510	19873
1471	19876
1483	19878
1509	19880
1490	19884
1447	19886
1427	19889
1464	19891
1481	19894
1446	19896
1431	19899
1451	19901
1526	19904
1595	19906
1614	19908
1552	19911
1474	19913
1433	19916
1433	19918
1457	19921
1443	19923
1428	19927
1439	19929
1489	19932
1521	19934
1561	19936
1579	19939
1547	19941
1485	19944
1442	19946
1445	19949
1477	19951
1482	19954
1451	19956
1432	19959
1448	19961
1470	19964
1483	19966
1527	19969
1570	19972
1582	19974
1549	19977
1498	19979
1465	19982
1474	19984
1473	19987
1466	19989
1466	19992
1487	19994
1498	19996
1491	19999
1490	20001
1489	20004
1488	20006
1484	20009
1513	20012
1534	20015
1515	20017
1521	20020
1532	20022
1512	20024
1472	20027
1475	20029
1479	20032
1431	20034
1396	20037
1407	20039
1448	20042
1478	20044
1495	20047
1508	20049
1501	20051
1540	20055
1563	20057
1539	20060
1465	20062
1428	20065
1442	20067
1478	20070
1485	20072
1476	20075
1467	20077
1457	20080
1448	20082
1452	20084
1474	20087
1502	20089
1517	20092
1507	20094
1477	20098
1467	20100
1464	20103
1477	20105
1439	20108
1395	20110
1403	20112
1474	20115
1504	20117
1485	20120
1468	20122
1502	20125
1554	20127
1577	20130
1557	20132
1525	20135
1479	20137
1442	20140
1432	20143
1431	20145
1421	20148
1423	20150
1459	20153
1492	20155
1532	20158
1554	20160
1536	20163
1496	20165
1504	20168
1562	20170
1570	20172
1530	20175
1495	20177
1464	20180
1425	20183
1411	20186
1428	20188
1449	20191
1470	20193
1506	20196
1536	20198
1511	20200
1455	20203
1443	20205
1515	20208
1596	20210
1599	20213
1573	20215
1559	20218
1558	20220
1554	20224
1538	20226
1517	20228
1501	20231
1483	20233
1444	20236
1415	20238
1418	20241
1453	20243
1465	20246
1455	20248
1484	20251
1516	20253
1566	20256
1593	20258
1575	20260
1568	20263
1569	20265
1547	20269
1506	20271
1485	20274
1473	20276
1465	20279
1463	20281
1469	20284
1481	20286
1480	20288
1493	20291
1532	20293
1542	20296
1566	20298
1575	20301
1580	20303
1549	20306
1496	20308
1456	20312
1482	20314
1504	20316
1479	20319
1435	20321
1415	20324
1447	20326
1479	20329
1474	20331
1450	20334
1454	20336
1462	20339
1474	20341
1485	20343
1478	20346
1469	20348
1479	20352
1517	20354
1540	20357
1485	20359
1419	20362
1379	20364
1456	20367
1520	20369
1524	20372
1510	20374
1474	20376
1446	20379
1455	20381
1524	20384
1557	20386
1565	20389
1558	20391
1529	20395
1467	20397
1431	20400
1437	20402
1507	20404
1556	20407
1555	20409
1544	20412
1557	20414
1539	20417
1501	20419
1464	20422
1427	20424
1411	20427
1431	20429
1453	20431
1462	20434
1417	20436
1380	20440
1391	20442
1457	20445
1530	20447
1578	20450
1585	20452
1578	20455
1551	20457
1527	20460
1503	20462
1471	20464
1457	20467
1424	20469
1389	20472
1393	20474
1463	20477
1537	20480
1526	20483
1488	20485
1465	20488
1506	20490
1523	20492
1516	20495
1501	20497
1498	20500
1501	20502
1489	20505
1489	20507
1491	20510
1484	20512
1476	20515
1510	20517
1507	20519
1447	20523
1386	20525
1420	20528
1506	20530
1515	20533
1477	20535
1462	20538
1463	20540
1472	20543
1477	20545
1484	20548
1483	20550
1492	20552
1514	20555
1533	20557
1541	20560
1542	20562
1512	20566
1466	20568
1437	20571
1443	20573
1478	20576
1511	20578
1526	20580
1494	20583
1458	20585
1446	20588
1458	20590
1452	20593
1420	20595
1405	20598
1404	20600
1453	20603
1517	20605
1540	20608
1538	20611
1520	20613
1492	20616
1442	20618
1415	20621
1420	20623
1463	20626
1517	20628
1546	20631
1547	20633
1544	20635
1541	20638
1560	20640
1554	20643
1524	20645
1479	20648
1435	20651
1412	20654
1418	20656
1457	20659
1531	20661
1605	20664
1612	20666
1579	20668
1538	20671
1481	20673
1421	20676
1402	20678
1463	20681
1540	20683
1549	20686
1496	20688
1474	20691
1503	20694
1514	20696
1512	20699
1501	20701
1487	20704
1473	20706
1466	20709
1486	20711
1525	20714
1554	20716
1564	20719
1568	20721
1554	20723
1523	20726
1498	20728
1446	20731
1400	20733
1404	20737
1486	20739
1531	20742
1529	20744
1522	20747
1517	20749
1499	20752
1484	20754
1478	20756
1477	20759
1478	20761
1494	20764
1516	20766
1517	20769
1539	20771
1566	20774
1571	20776
1524	20780
1456	20782
1407	20784
1400	20787
1388	20789
1395	20792
1434	20794
1498	20797
1514	20799
1500	20802
1499	20804
1534	20807
1569	20809
1568	20811
1553	20814
1545	20816
1551	20819
1514	20822
1454	20825
1411	20827
1399	20830
1452	20832
1538	20835
1592	20837
1598	20840
1567	20842
1543	20844
1516	20847
1504	20849
1494	20852
1472	20854
1445	20857
1435	20859
1455	20862
1480	20865
1509	20868
1504	20870
1488	20872
1461	20875
1404	20877
1363	20880
1406	20882
1471	20885
1555	20887
1594	20890
1599	20892
1590	20895
1593	20897
1590	20899
1562	20902
1526	20904
1502	20908
1459	20910
1417	20913
1428	20915
1496	20918
1528	20920
1469	20923
1420	20925
1365	20928
1378	20930
1414	20932
1474	20935
1533	20937
1556	20940
1546	20942
1528	20945
1524	20947
1525	20951
1518	20953
1500	20956
1470	20958
1443	20960
1449	20963
1471	20965
1499	20968
1506	20970
1490	20973
1494	20975
1527	20978
1560	20980
1559	20983
1542	20985
1502	20987
1437	20990
1387	20993
1357	20996
1368	20998
1436	21001
1506	21003
1529	21006
1532	21008
1534	21011
1535	21013
1521	21015
1490	21018
1453	21020
1435	21023
1463	21025
1496	21028
1499	21030
1491	21033
1491	21036
1514	21039
1530	21041
1538	21044
1540	21046
1526	21048
1478	21051
1437	21053
1428	21056
1457	21058
1475	21061
1478	21063
1504	21066
1513	21068
1494	21071
1475	21073
1459	21075
1473	21079
1507	21081
1557	21084
1545	21086
1502	21089
1483	21091
1525	21094
1531	21096
1499	21099
1494	21101
1494	21103
1501	21106
1512	21108
1514	21111
1510	21113
1497	21116
1476	21118
1475	21122
1502	21124
1520	21127
1504	21129
1454	21132
1420	21134
1423	21136
1448	21139
1450	21141
1467	21144
1498	21146
1536	21149
1587	21151
1598	21154
1574	21156
1543	21159
1496	21161
1459	21164
1458	21167
1473	21169
1430	21172
1388	21174
1389	21177
1434	21179
1459	21182
1432	21184
1428	21187
1451	21189
1512	21191
1535	21194
1557	21196
1579	21199
1586	21201
1586	21204
1576	21207
1519	21210
1445	21212
1451	21215
1506	21217
1513	21220
1497	21222
1498	21224
1499	21227
1511	21229
1509	21232
1496	21234
1480	21237
1479	21239
1492	21242
1499	21244
1507	21248
1493	21250
1455	21252
1455	21255
1508	21257
1543	21260
1540	21262
1524	21265
1493	21267
1465	21270
1478	21272
1510	21275
1530	21277
1508	21279
1494	21282
1479	21284
1453	21287
1437	21289
1442	21293
1475	21295
1555	21298
1601	21300
1581	21303
1511	21305
1412	21307
1323	21310
1302	21312
1356	21315
1438	21317
1501	21320
1512	21322
1507	21325
1527	21327
1539	21330
1509	21332
1478	21336
1474	21338
1464	21340
1450	21343
1463	21345
1505	21348
1542	21350
1530	21353
1495	21355
1457	21358
1423	21360
1437	21363
1469	21365
1499	21367
1489	21370
1465	21372
1457	21376
1472	21378
1492	21381
1518	21383
1511	21386
1479	21388
1468	21391
1466	21393
1476	21395
1484	21398
1446	21400
1409	21403
1412	21405
1439	21408
1464	21410
1470	21413
1479	21415
1494	21419
1527	21421
1567	21424
1574	21426
1553	21428
1508	21431
1449	21433
1424	21436
1485	21438
1548	21441
1543	21443
1509	21446
1501	21448
1506	21451
1512	21453
1513	21455
1508	21458
1493	21460
1448	21464
1439	21466
1462	21469
1496	21471
1498	21474
1533	21476
1545	21479
1532	21481
1510	21483
1487	21486
1462	21488
1434	21491
1437	21493
1461	21496
1481	21498
1499	21501
1508	21504
1511	21507
1533	21509
1586	21512
1590	21514
1531	21516
1475	21519
1447	21521
1433	21524
1430	21526
1436	21529
1448	21531
1455	21534
1476	21536
1498	21539
1486	21541
1465	21543
1455	21547
1469	21549
1461	21552
1425	21554
1440	21557
1497	21559
1528	21562
1541	21564
1515	21567
1478	21569
1446	21571
1451	21574
1475	21576
1478	21579
1512	21581
1594	21584
1644	21586
1597	21590
1513	21592
1437	21595
1436	21597
1489	21600
1520	21602
1485	21604
1470	21607
1484	21609
1521	21612
1510	21614
1451	21617
1421	21619
1444	21622
1478	21624
1474	21627
1452	21629
1445	21632
1436	21635
1501	21637
1565	21640
1587	21642
1556	21645
1491	21647
1462	21650
1459	21652
1475	21655
1473	21657
1424	21659
1383	21662
1410	21664
1486	21667
1551	21669
1584	21672
1590	21675
1567	21678
1534	21680
1498	21683
1464	21685
1432	21687
1426	21690
1444	21692
1478	21695
1495	21697
1477	21700
1451	21702
1472	21705
1523	21707
1528	21710
1473	21712
1430	21715
1438	21718
1486	21720
1502	21723
1498	21725
1482	21728
1482	21730
1505	21733
1534	21735
1535	21738
1525	21740
1556	21743
1565	21745
1538	21747
1482	21750
1448	21752
1444	21755
1432	21757
1412	21761
1421	21763
1485	21766
1558	21768
1580	21771
1561	21773
1537	21775
1525	21778
1507	21780
1480	21783
1470	21785
1476	21788
1455	21790
1417	21793
1407	21795
1434	21798
1453	21800
1437	21804
1435	21806
1442	21808
1453	21811
1469	21813
1486	21816
1482	21818
1463	21821
1468	21823
1498	21826
1506	21828
1497	21831
1476	21833
1466	21835
1465	21838
1460	21840
1453	21843
1453	21846
1472	21849
1511	21851
1528	21854
1535	21856
1535	21859
1512	21861
1481	21863
1463	21866
1452	21868
1448	21871
1464	21873
1493	21876
1511	21878
1477	21881
1464	21883
1510	21886
1549	21889
1554	21891
1524	21894
1498	21896
1483	21899
1481	21901
1496	21904
1490	21906
1482	21909
1496	21911
1533	21914
1557	21916
1564	21919
1548	21921
1509	21923
1476	21926
1457	21928
1440	21932
1450	21934
1503	21937
1581	21939
1591	21942
1552	21944
1501	21947
1482	21949
1485	21951
1480	21954
1492	21956
1508	21959
1510	21961
1490	21964
1465	21966
1427	21969
1405	21971
1425	21975
1470	21977
1469	21979
1476	21982
1511	21984
1536	21987
1538	21989
1520	21992
1517	21994
1526	21997
1537	21999
1531	22002
1521	22004
1530	22007
1549	22009
1550	22011
1532	22014
1511	22017
1507	22020
1524	22022
1531	22025
1506	22027
1476	22030
1449	22032
1434	22035
1449	22037
1493	22039
1533	22042
1528	22044
1500	22047
1486	22049
1476	22052
1480	22054
1505	22057
1539	22060
1563	22063
1560	22065
1524	22067
1464	22070
1425	22072
1445	22075
1484	22077
1490	22080
1474	22082
1464	22085
1480	22087
1491	22090
1499	22092
1498	22095
1482	22097
1459	22099
1437	22103
1427	22105
1442	22108
1459	22110
1474	22113
1493	22115
1520	22118
1537	22120
1547	22123
1528	22125
1499	22127
1489	22130
1482	22132
1482	22135
1486	22137
1492	22140
1474	22142
1466	22146
1510	22148
1553	22151
1552	22153
1517	22155
1501	22158
1478	22160
1447	22163
1429	22165
1430	22168
1421	22170
1462	22173
1542	22175
1580	22178
1584	22180
1573	22183
1552	22185
1511	22188
1497	22191
1506	22193
1551	22196
1581	22198
1578	22201
1549	22203
1500	22206
1467	22208
1473	22211
1511	22213
1584	22215
1633	22218
1622	22220
1570	22223
1507	22225
1471	22228
1455	22231
1444	22234
1431	22236
1433	22239
1455	22241
1497	22243
1509	22246
1487	22248
1485	22251
1502	22253
1534	22256
1532	22258
1497	22261
1471	22263
1460	22266
1453	22268
1442	22270
1458	22274
1487	22276
1482	22279
1449	22281
1445	22284
1493	22286
1523	22289
1512	22291
1502	22294
1493	22296
1500	22299
1473	22301
1429	22303
1438	22306
1489	22308
1516	22311
1504	22313
1495	22317
1491	22319
1484	22322
1468	22324
1468	22327
1494	22329
1521	22331
1538	22334
1556	22336
1545	22339
1527	22341
1513	22344
1537	22346
1564	22349
1578	22351
1579	22354
1565	22356
1511	22359
1480	22362
1523	22364
1567	22367
1561	22369
1533	22372
1499	22374
1468	22377
1446	22379
1483	22382
1575	22384
1609	22387
1579	22389
1526	22391
1494	22394
1488	22396
1496	22400
1496	22402
1478	22405
1456	22407
1433	22410
1427	22412
1444	22415
1481	22417
1518	22419
1533	22422
1519	22424
1459	22427
1453	22429
1489	22432
1523	22434
1526	22437
1523	22439
1519	22443
1518	22445
1526	22447
1528	22450
1545	22452
1562	22455
1563	22457
1528	22460
1487	22462
1476	22465
1492	22467
1512	22470
1523	22472
1518	22475
1490	22477
1473	22479
1489	22482
1530	22484
1515	22488
1494	22490
1485	22493
1536	22495
1601	22498
1612	22500
1553	22503
1499	22505
1500	22507
1563	22510
1593	22512
1578	22515
1540	22517
1498	22520
1479	22522
1493	22525
1511	22528
1495	22531
1489	22533
1489	22535
1499	22538
1517	22540
1494	22543
1455	22545
1450	22548
1463	22550
1471	22553
1485	22555
1508	22558
1495	22560
1488	22562
1530	22565
1553	22567
1539	22571
1518	22573
1500	22576
1492	22578
1488	22581
1486	22583
1481	22586
1496	22588
1513	22591
1535	22593
1527	22595
1505	22598
1486	22600
1477	22603
1471	22605
1467	22608
1465	22610
1446	22614
1407	22616
1402	22619
1440	22621
1501	22623
1533	22626
1540	22628
1537	22631
1537	22633
1537	22636
1541	22638
1554	22641
1580	22643
1594	22646
1585	22648
1545	22650
1504	22653
1484	22656
1482	22659
1487	22661
1483	22664
1482	22666
1480	22669
1472	22671
1480	22674
1507	22676
1517	22679
1502	22681
1487	22683
1474	22686
1457	22688
1436	22691
1411	22693
1389	22696
1391	22699
1426	22702
1462	22704
1472	22707
1494	22709
1511	22711
1514	22714
1502	22716
1485	22719
1474	22721
1485	22724
1513	22726
1518	22729
1504	22731
1489	22734
1474	22736
1485	22738
1510	22742
1536	22744
1535	22747
1520	22749
1501	22752
1513	22754
1539	22757
1528	22759
1518	22762
1542	22764
1550	22767
1484	22769
1439	22771
1480	22774
1560	22776
1621	22779
1597	22781
1546	22785
1518	22787
1502	22790
1502	22792
1496	22795
1481	22797
1496	22799
1541	22802
1545	22804
1489	22807
1440	22809
1444	22812
1489	22814
1506	22817
1511	22819
1535	22822
1564	22824
1572	22827
1571	22830
1579	22832
1589	22835
1571	22837
1535	22840
1492	22842
1460	22845
1443	22847
1430	22850
1418	22852
1403	22855
1384	22857
1392	22859
1457	22862
1515	22864
1530	22867
1534	22870
1508	22873
1497	22875
1515	22878
1534	22880
1527	22883
1502	22885
1486	22887
1440	22890
1393	22892
1381	22895
1426	22897
1488	22900
1525	22902
1547	22905
1541	22907
1514	22910
1483	22913
1470	22915
1446	22918
1423	22920
1392	22923
1423	22925
1489	22928
1534	22930
1548	22933
1534	22935
1524	22938
1510	22940
1491	22943
1475	22945
1475	22947
1479	22950
1487	22952
1480	22956
1466	22958
1449	22961
1440	22963
1447	22966
1484	22968
1513	22971
1534	22973
1523	22975
1511	22978
1490	22980
1474	22983
1470	22985
1464	22988
1432	22990
1412	22993
1425	22995
1442	22999
1466	23001
1501	23003
1529	23006
1538	23008
1550	23011
1556	23013
1521	23016
1471	23018
1469	23021
1492	23023
1515	23026
1520	23028
1493	23030
1464	23033
1434	23035
1422	23038
1408	23041
1417	23044
1431	23046
1441	23049
1429	23051
1432	23054
1461	23056
1481	23059
1502	23061
1509	23063
1492	23066
1457	23068
1474	23071
1524	23073
1526	23076
1489	23078
1464	23081
1459	23084
1440	23087
1429	23089
1431	23091
1437	23094
1443	23096
1457	23099
1449	23101
1446	23104
1451	23106
1458	23109
1458	23111
1446	23114
1401	23116
1376	23118
1412	23121
1493	23123
1531	23127
1533	23129
1525	23132
1514	23134
1498	23137
1470	23139
1461	23142
1457	23144
1435	23146
1412	23149
1398	23151
1368	23154
1370	23156
1381	23159
1386	23161
1389	23164
1425	23166
1471	23170
1499	23172
1519	23175
1534	23177
1548	23179
1544	23182
1514	23184
1484	23187
1450	23189
1409	23192
1398	23194
1419	23197
1452	23199
1460	23202
1449	23204
1437	23206
1441	23209
1437	23212
1426	23215
1422	23217
1416	23220
1403	23222
1393	23225
1420	23227
1450	23230
1447	23232
1390	23234
1355	23237
1379	23239
1436	23242
1451	23244
1423	23247
1388	23249
1368	23252
1394	23255
1440	23258
1489	23260
1507	23263
1492	23265
1472	23267
1459	23270
1477	23272
1511	23275
1527	23277
1528	23280
1513	23282
1494	23285
1483	23287
1473	23290
1466	23292
1456	23294
1445	23298
1421	23300
1386	23303
1374	23305
1408	23308
1446	23310
1451	23313
1464	23315
1474	23318
1472	23320
1455	23322
1447	23325
1475	23327
1500	23330
1514	23332
1530	23335
1541	23337
1523	23341
1473	23343
1442	23346
1461	23348
1501	23351
1504	23353
1482	23355
1480	23358
1535	23360
1589	23363
1583	23365
1571	23368
1570	23370
1579	23373
1566	23375
1556	23378
1531	23380
1502	23383
1504	23386
1525	23388
1528	23391
1513	23393
1505	23396
1561	23398
1596	23401
1575	23403
1495	23406
1446	23408
1447	23410
1465	23413
1477	23415
1504	23418
1552	23420
1561	23424
1538	23426
1523	23429
1538	23431
1546	23434
1531	23436
1532	23439
1550	23441
1591	23443
1613	23446
1587	23448
1557	23451
1499	23453
1456	23456
1448	23458
1473	23461
1516	23463
1541	23467
1546	23469
1530	23471
1493	23474
1502	23476
1557	23479
1577	23481
1540	23484
1508	23486
1526	23489
1509	23491
1479	23494
1466	23496
1494	23498
1525	23501
1537	23503
1531	23506
1543	23508
1585	23512
1596	23514
1571	23517
1550	23519
1551	23522
1565	23524
1555	23526
1503	23529
1431	23531
1376	23534
1367	23536
1404	23539
1490	23541
1596	23544
1631	23546
1582	23549
1521	23552
1469	23555
1472	23557
1509	23559
1516	23562
1480	23564
1444	23567
1421	23569
1429	23572
1500	23574
1579	23577
1591	23579
1567	23582
1560	23584
1558	23586
1528	23589
1507	23591
1511	23595
1525	23597
1541	23600
1526	23602
1499	23605
1475	23607
1478	23610
1470	23612
1415	23614
1388	23617
1397	23619
1460	23622
1521	23624
1567	23627
1573	23629
1534	23632
1505	23634
1504	23638
1543	23640
1569	23643
1567	23645
1528	23647
1473	23650
1424	23652
1414	23655
1443	23657
1478	23660
1523	23662
1542	23665
1486	23667
1406	23670
1380	23672
1404	23674
1443	23677
1472	23680
1480	23683
1486	23685
1482	23688
1493	23690
1505	23693
1501	23695
1525	23698
1546	23700
1563	23702
1560	23705
1528	23707
1470	23710
1441	23712
1477	23715
1535	23717
1566	23720
1532	23723
1421	23726
1357	23728
1383	23731
1510	23733
1603	23735
1620	23738
1586	23740
1519	23743
1489	23745
1511	23748
1544	23750
1534	23753
1481	23755
1427	23758
1407	23760
1468	23762
1554	23766
1615	23768
1617	23771
1582	23773
1536	23776
1473	23778
1434	23781
1418	23783
1444	23786
1469	23788
1498	23790
1531	23793
1497	23795
1459	23798
1455	23800
1507	23803
1537	23805
1543	23809
1544	23811
1525	23814
1504	23816
1522	23819
1549	23821
1552	23823
1531	23826
1490	23828
1470	23831
1465	23833
1493	23836
1523	23838
1534	23841
1504	23843
1449	23846
1414	23848
1455	23851
1541	23854
1596	23856
1596	23859
1574	23861
1534	23864
1498	23866
1495	23869
1513	23871
1486	23874
1437	23876
1409	23878
1432	23881
1456	23883
1454	23886
1426	23888
1395	23891
1432	23894
1499	23897
1539	23899
1544	23902
1537	23904
1564	23907
1626	23909
1651	23911
1558	23914
1462	23916
1438	23919
1510	23921
1554	23924
1592	23926
1616	23929
1556	23931
1440	23934
1389	23937
1401	23939
1440	23942
1479	23944
1553	23947
1599	23949
1568	23952
1519	23954
1490	23957
1438	23959
1370	23962
1395	23964
1503	23966
1598	23969
1576	23971
1527	23974
1530	23976
1571	23980
1588	23982
1500	23985
1405	23987
1397	23990
1470	23992
1525	23994
1520	23997
1515	23999
1538	24002
1541	24004
1514	24007
1455	24009
1417	24012
1444	24014
1519	24017
1563	24019
1558	24023
1511	24025
1399	24027
1326	24030
1352	24032
1491	24035
1599	24037
1617	24040
1580	24042
1546	24045
1526	24047
1461	24050
1408	24052
1407	24054
1452	24057
1501	24059
1516	24062
1540	24065
1531	24068
1512	24070
1492	24073
1482	24075
1482	24078
1479	24080
1486	24082
1473	24085
1455	24087
1451	24090
1448	24092
1443	24095
1444	24097
1473	24100
1472	24102
1444	24105
1403	24108
1385	24111
1435	24113
1514	24115
1583	24118
1599	24120
1585	24123
1584	24125
1527	24128
1478	24130
1463	24133
1496	24135
1514	24138
1513	24140
1509	24142
1493	24145
1483	24147
1457	24151
1363	24153
1300	24156
1324	24158
1446	24161
1535	24163
1534	24166
1507	24168
1467	24170
1440	24173
1452	24175
1472	24178
1481	24180
1482	24183
1499	24185
1516	24188
1509	24190
1488	24194
1480	24196
1466	24199
1449	24201
1402	24203
1378	24206
1394	24208
1462	24211
1506	24213
1510	24216
1502	24218
1488	24221
1482	24223
1493	24226
1504	24228
1477	24230
1452	24233
1475	24236
1508	24239
1507	24241
1494	24244
1474	24246
1473	24249
1473	24251
1483	24254
1510	24256
1499	24258
1459	24261
1433	24263
1419	24266
1429	24268
1452	24271
1496	24273
1559	24276
1595	24279
1579	24282
1514	24284
1458	24286
1467	24289
1498	24291
1495	24294
1480	24296
1465	24299
1456	24301
1477	24304
1503	24306
1497	24309
1409	24311
1359	24314
1419	24316
1534	24318
1580	24322
1566	24324
1545	24327
1524	24329
1501	24332
1506	24334
1537	24337
1549	24339
1524	24342
1500	24344
1514	24346
1545	24349
1534	24351
1476	24354
1447	24356
1459	24359
1483	24361
1497	24365
1507	24367
1519	24370
1540	24372
1559	24374
1545	24377
1471	24379
1379	24382
1339	24384
1327	24387
1365	24389
1427	24392
1516	24394
1613	24397
1648	24399
1579	24402
1497	24404
1456	24407
1462	24410
1502	24412
1565	24415
1601	24417
1619	24420
1596	24422
1596	24425
1597	24427
1582	24430
1527	24432
1472	24434
1435	24437
1437	24439
1482	24442
1550	24444
1542	24448
1503	24450
1521	24453
1580	24455
1587	24458
1521	24460
1456	24462
1430	24465
1432	24467
1460	24470
1471	24472
1463	24475
1457	24477
1433	24480
1409	24482
1419	24485
1475	24487
1535	24491
1505	24493
1466	24495
1464	24498
1518	24500
1561	24503
1566	24505
1544	24508
1488	24510
1409	24513
1360	24515
1379	24518
1472	24520
1506	24522
1485	24525
1484	24527
1586	24530
1654	24532
1647	24536
1583	24538
1552	24541
1549	24543
1526	24546
1477	24548
1404	24550
1383	24553
1414	24555
1481	24558
1527	24560
1533	24563
1529	24565
1528	24568
1525	24570
1524	24573
1526	24576
1537	24579
1564	24581
1572	24583
1565	24586
1498	24588
1401	24591
1346	24593
1402	24596
1496	24598
1545	24601
1538	24603
1521	24606
1502	24608
1466	24610
1451	24613
1451	24615
1457	24619
1437	24621
1402	24624
1385	24626
1408	24629
1474	24631
1496	24634
1459	24636
1429	24638
1443	24641
1485	24643
1482	24646
1452	24648
1445	24651
1443	24653
1403	24656
1371	24658
1372	24662
1422	24664
1467	24666
1477	24669
1460	24671
1466	24674
1500	24676
1511	24679
1505	24681
1498	24684
1482	24686
1450	24689
1426	24691
1430	24694
1457	24696
1486	24698
1513	24701
1541	24704
1529	24707
1486	24709
1466	24712
1478	24714
1514	24717
1520	24719
1498	24722
1501	24724
1517	24726
1534	24729
1527	24731
1495	24734
1460	24736
1415	24739
1360	24741
1363	24744
1413	24747
1507	24750
1537	24752
1528	24754
1536	24757
1577	24759
1610	24762
1609	24764
1578	24767
1534	24769
1497	24772
1479	24774
1462	24777
1410	24779
1356	24782
1347	24784
1388	24786
1454	24790
1500	24792
1523	24795
1516	24797
1520	24800
1556	24802
1595	24805
1607	24807
1604	24810
1567	24812
1521	24814
1477	24817
1460	24819
1468	24822
1477	24824
1488	24827
1510	24829
1521	24833
1522	24835
1518	24838
1517	24840
1531	24842
1523	24845
1497	24847
1471	24850
1429	24852
1386	24855
1382	24857
1407	24860
1425	24862
1425	24865
1418	24867
1405	24870
1411	24872
1442	24875
1489	24878
1547	24880
1590	24883
1586	24885
1551	24888
1488	24890
1439	24893
1414	24895
1400	24898
1389	24900
1406	24902
1463	24905
1484	24907
1496	24910
1537	24912
1571	24915
1574	24918
1519	24921
1446	24923
1407	24926
1443	24928
1525	24930
1537	24933
1509	24935
1518	24938
1567	24940
1585	24943
1548	24945
1487	24948
1438	24950
1429	24953
1403	24955
1356	24958
1329	24961
1378	24963
1452	24966
1480	24968
1470	24971
1455	24973
1424	24976
1399	24978
1374	24981
1419	24983
1493	24986
1544	24988
1574	24990
1560	24993
1520	24995
1446	24998
1410	25000
1450	25004
1507	25006
1522	25009
1516	25011
1528	25014
1538	25016
1537	25018
1499	25021
1466	25023
1451	25026
1442	25028
1415	25031
1423	25033
1485	25036
1512	25038
1478	25041
1457	25043
1495	25047
1546	25049
1549	25051
1520	25054
1492	25056
1481	25059
1488	25061
1470	25064
1427	25066
1414	25069
1459	25071
1523	25074
1540	25076
1518	25078
1510	25081
1515	25083
1499	25086
1472	25089
1462	25092
1485	25094
1507	25097
1493	25099
1458	25102
1424	25104
1398	25106
1408	25109
1381	25111
1378	25114
1419	25116
1493	25119
1496	25121
1457	25124
1438	25126
1457	25129
1457	25132
1444	25134
1447	25137
1462	25139
1469	25142
1462	25144
1463	25147
1482	25149
1502	25152
1491	25154
1432	25157
1392	25159
1398	25162
1435	25164
1514	25166
1575	25169
1565	25171
1532	25175
1505	25177
1505	25180
1517	25182
1503	25185
1486	25187
1486	25190
1482	25192
1475	25194
1454	25197
1424	25199
1415	25202
1425	25204
1451	25207
1466	25209
1480	25212
1478	25214
1483	25218
1474	25220
1462	25222
1467	25225
1491	25227
1525	25230
1538	25232
1519	25235
1529	25237
1573	25240
1556	25242
1474	25245
1425	25247
1462	25250
1499	25252
1509	25254
1500	25257
1485	25260
1466	25263
1438	25265
1442	25268
1458	25270
1501	25273
1531	25275
1561	25278
1570	25280
1561	25282
1540	25285
1529	25287
1526	25290
1499	25292
1451	25295
1423	25297
1440	25300
1508	25303
1598	25306
1615	25308
1583	25310
1528	25313
1500	25315
1510	25318
1530	25320
1496	25323
1437	25325
1409	25328
1460	25330
1516	25333
1513	25335
1471	25338
1412	25340
1388	25342
1406	25346
1408	25348
1400	25351
1404	25353
1431	25356
1449	25358
1454	25361
1486	25363
1555	25366
1579	25368
1568	25370
1538	25373
1510	25375
1483	25378
1411	25380
1375	25383
1416	25385
1493	25389
1549	25391
1573	25394
1551	25396
1483	25398
1412	25401
1385	25403
1443	25406
1516	25408
1533	25411
1493	25413
1428	25416
1406	25418
1457	25421
1566	25423
1644	25426
1646	25428
1614	25431
1567	25434
1528	25436
1500	25439
1461	25441
1440	25444
1433	25446
1450	25449
1476	25451
1511	25454
1553	25456
1590	25458
1599	25461
1589	25463
1588	25466
1572	25468
1567	25472
1549	25474
1550	25477
1570	25479
1553	25482
1506	25484
1472	25486
1470	25489
1516	25491
1545	25494
1483	25496
1382	25499
1329	25501
1378	25504
1461	25506
1545	25509
1588	25511
1628	25513
1624	25517
1568	25519
1520	25522
1477	25524
1445	25527
1433	25529
1467	25532
1500	25534
1520	25537
1516	25539
1456	25542
1383	25544
1371	25546
1470	25549
1543	25551
1591	25554
1577	25556
1542	25560
1522	25562
1504	25565
1469	25567
1458	25570
1466	25572
1460	25574
1413	25577
1389	25579
1421	25582
1505	25584
1542	25587
1516	25589
1503	25592
1503	25594
1541	25597
1564	25600
1601	25602
1632	25605
1628	25607
1591	25610
1534	25612
1504	25615
1482	25617
1475	25620
1451	25622
1430	25625
1435	25627
1466	25630
1484	25632
1472	25634
1430	25637
1419	25639
1439	25643
1466	25645
1488	25648
1505	25650
1532	25653
1563	25655
1583	25658
1591	25660
1602	25662
1593	25665
1566	25667
1533	25670
1472	25672
1395	25675
1354	25677
1386	25680
1422	25682
1393	25686
1400	25688
1476	25690
1571	25693
1626	25695
1616	25698
1582	25700
1559	25703
1540	25705
1487	25708
1469	25710
1446	25713
1389	25715
1366	25717
1407	25720
1507	25722
1575	25725
1593	25728
1597	25731
1600	25733
1600	25736
1581	25738
1544	25741
1505	25743
1480	25746
1457	25748
1424	25750
1407	25753
1399	25755
1434	25758
1511	25760
1565	25763
1599	25765
1591	25768
1550	25771
1515	25774
1503	25776
1496	25778
1484	25781
1441	25783
1443	25786
1503	25788
1584	25791
1607	25793
1577	25796
1500	25798
1407	25801
1357	25803
1384	25805
1471	25808
1544	25810
1561	25814
1544	25816
1519	25819
1501	25821
1493	25824
1456	25826
1432	25829
1463	25831
1493	25834
1502	25836
1522	25838
1528	25841
1521	25843
1533	25846
1579	25848
1638	25851
1648	25853
1596	25857
1513	25859
1447	25862
1426	25864
1463	25866
1521	25869
1553	25871
