1487	2
1489	5
1489	7
1489	9
1488	11
1487	14
1487	16
1487	18
1487	21
1487	23
1485	25
1483	27
1481	30
1480	32
1482	34
1485	37
1487	39
1489	41
1489	45
1489	47
1488	49
1488	51
1488	54
1489	56
1490	58
1491	61
1491	63
1493	65
1492	68
1492	70
1491	72
1491	75
1490	77
1490	79
1491	81
1492	84
1492	87
1492	89
1493	92
1492	94
1492	96
1492	99
1491	101
1491	103
1491	106
1491	108
1492	110
1492	113
1492	115
1491	117
1491	120
1489	122
1487	124
1486	128
1488	130
1490	132
1493	135
1493	137
1492	140
1493	142
1493	144
1492	147
1492	149
1492	151
1492	154
1491	156
1490	158
1489	161
1489	163
1489	165
1488	168
1488	171
1488	173
1489	176
1490	178
1490	181
1490	183
1488	185
1487	188
1486	190
1487	192
1488	195
1489	197
1489	199
1489	202
1489	204
1488	206
1489	209
1489	211
1488	214
1488	217
1487	219
1486	222
1486	224
1485	226
1485	229
1485	231
1486	233
1487	236
1487	238
1486	240
1482	243
1479	245
1478	247
1480	250
1482	252
1485	256
1486	258
1486	260
1487	263
1486	265
1485	267
1485	270
1484	272
1485	274
1486	277
1486	279
1486	281
1486	284
1485	286
1485	288
1485	291
1486	293
1486	296
1485	299
1485	301
1484	304
1483	306
1482	308
1482	311
1482	313
1482	315
1483	318
1483	320
1482	322
1482	325
1482	327
1482	329
1483	332
1483	334
1483	337
1483	339
1483	342
1484	345
1484	347
1484	349
1483	352
1483	354
1483	356
1482	359
1481	361
1480	363
1479	366
1478	368
1479	370
1481	373
1482	375
1483	378
1484	380
1484	382
1485	386
1484	388
1482	390
1481	393
1481	395
1481	397
1483	400
1483	402
1483	404
1482	407
1482	409
1483	412
1484	414
1485	416
1485	419
1487	421
1487	423
1486	427
1486	429
1486	431
1485	434
1484	436
1483	438
1482	441
1483	443
1483	445
1483	448
1481	450
1481	453
1482	455
1483	457
1485	460
1486	462
1486	464
1485	467
1485	470
1484	472
1484	475
1485	477
1486	479
1486	482
1487	484
1487	487
1486	489
1486	491
1487	494
1487	496
1487	498
1486	501
1484	503
1482	505
1481	508
1482	510
1483	513
1483	516
1483	518
1483	520
1483	523
1484	525
1484	528
1483	530
1483	532
1482	535
1484	537
1484	539
1484	542
1484	544
1481	546
1479	549
1478	551
1479	553
1479	557
1479	559
1480	561
1483	564
1484	566
1486	569
1486	571
1484	573
1484	576
1483	578
1483	580
1481	583
1481	585
1482	587
1483	590
1484	592
1485	594
1485	598
1484	600
1485	603
1485	605
1485	607
1485	610
1485	612
1484	614
1483	617
1482	619
1481	621
1482	624
1483	626
1485	628
1486	631
1486	633
1486	635
1487	638
1487	641
1487	644
1486	646
1482	648
1480	651
1478	653
1481	655
1485	658
1487	660
1488	662
1488	665
1488	667
1489	669
1490	672
1491	674
1490	676
1490	679
1489	681
1489	685
1489	687
1488	689
1487	692
1487	694
1488	696
1488	699
1488	701
1488	703
1488	706
1486	708
1483	710
1481	713
1481	715
1483	718
1486	720
1487	722
1487	726
1487	728
1487	730
1487	733
1486	735
1484	737
1483	740
1483	742
1484	744
1486	747
1488	749
1489	751
1488	754
1487	756
1487	759
1488	761
1488	763
1488	766
1488	769
1488	771
1487	774
1486	776
1486	778
1486	781
1487	783
1487	785
1487	788
1488	790
1487	792
1487	795
1487	797
1487	800
1487	802
1486	804
1486	807
1484	809
1482	812
1481	815
1483	817
1485	819
1487	822
1488	824
1488	826
1487	829
1487	831
1486	834
1486	836
1487	838
1488	841
1489	843
1489	845
1489	848
1489	850
1489	852
1488	856
1488	858
1488	860
1488	863
1486	865
1484	867
1484	870
1485	872
1487	875
1488	877
1488	879
1487	882
1487	884
1486	886
1487	889
1488	891
1488	893
1488	897
1488	899
1488	901
1488	904
1488	906
1488	908
1487	911
1484	913
1483	916
1484	918
1487	920
1489	923
1490	925
1490	927
1489	930
1487	932
1485	934
1486	937
1488	940
1488	942
1490	945
1491	947
1491	950
1491	952
1489	954
1486	957
1486	959
1486	961
1488	964
1489	966
1490	968
1490	971
1489	973
1489	975
1489	978
1489	980
1489	983
1488	986
1487	988
1486	991
1485	993
1484	995
1483	998
1482	1000
1480	1002
1480	1005
1482	1007
1484	1010
1486	1012
1487	1014
1488	1017
1488	1019
1488	1022
1487	1025
1486	1027
1487	1030
1487	1032
1487	1035
1487	1037
1487	1039
1487	1042
1487	1044
1486	1047
1484	1049
1482	1051
1483	1054
1485	1056
1487	1059
1488	1061
1488	1063
1489	1067
1490	1069
1490	1072
1491	1074
1490	1076
1488	1079
1488	1081
1488	1084
1487	1086
1488	1088
1487	1091
1486	1093
1486	1096
1486	1098
1487	1101
1486	1103
1485	1105
1482	1108
1482	1111
1485	1114
1487	1116
1488	1118
1488	1121
1489	1123
1489	1126
1489	1128
1489	1130
1489	1133
1489	1135
1489	1138
1488	1140
1486	1142
1483	1145
1483	1147
1483	1150
1486	1153
1488	1155
1489	1158
1488	1160
1489	1163
1490	1165
1490	1167
1490	1170
1488	1172
1486	1175
1485	1177
1486	1179
1487	1182
1488	1184
1488	1187
1489	1189
1488	1191
1488	1195
1487	1197
1487	1200
1486	1202
1486	1205
1485	1207
1486	1209
1487	1212
1488	1214
1489	1217
1491	1219
1491	1221
1490	1224
1488	1226
1487	1229
1488	1231
1488	1233
1488	1236
1487	1239
1487	1242
1488	1244
1489	1246
1488	1249
1488	1251
1488	1254
1486	1256
1484	1258
1484	1261
1484	1263
1486	1266
1488	1268
1489	1270
1489	1273
1489	1275
1488	1278
1487	1281
1487	1283
1487	1286
1487	1288
1488	1291
1487	1293
1487	1295
1487	1298
1487	1300
1487	1303
1488	1305
1489	1307
1489	1310
1489	1312
1488	1315
1487	1317
1486	1320
1487	1323
1488	1325
1488	1328
1489	1330
1489	1333
1487	1335
1485	1337
1483	1340
1483	1342
1482	1345
1483	1347
1485	1349
1486	1352
1489	1354
1489	1357
1489	1359
1488	1361
1487	1364
1486	1367
1486	1370
1486	1372
1487	1374
1488	1377
1488	1379
1487	1382
1486	1384
1485	1386
1484	1389
1484	1391
1485	1394
1485	1396
1485	1398
1486	1401
1486	1403
1486	1406
1486	1409
1486	1411
1487	1414
1488	1416
1487	1419
1486	1421
1486	1423
1488	1426
1490	1428
1490	1431
1490	1433
1488	1436
1485	1438
1481	1440
1478	1443
1479	1445
1482	1448
1483	1451
1485	1453
1486	1456
1486	1458
1486	1461
1486	1463
1486	1465
1485	1468
1485	1470
1485	1473
1484	1475
1485	1477
1486	1480
1488	1482
1489	1485
1489	1487
1488	1489
1487	1492
1484	1495
1483	1498
1484	1500
1485	1502
1486	1505
1487	1507
1488	1510
1488	1512
1488	1514
1486	1517
1483	1519
1482	1522
1481	1524
1480	1526
1478	1529
1479	1531
1482	1534
1484	1537
1485	1540
1485	1542
1485	1544
1486	1547
1485	1549
1484	1552
1483	1554
1481	1556
1481	1559
1483	1561
1485	1564
1485	1566
1483	1568
1483	1571
1482	1573
1482	1576
1484	1579
1484	1581
1485	1584
1485	1586
1485	1589
1486	1591
1487	1593
1487	1596
1487	1598
1488	1601
1488	1603
1489	1605
1488	1608
1487	1610
1485	1613
1485	1615
1485	1617
1486	1620
1486	1623
1485	1626
1484	1628
1483	1631
1482	1633
1482	1635
1483	1638
1484	1640
1483	1643
1483	1645
1484	1647
1487	1650
1487	1652
1487	1655
1487	1657
1486	1659
1486	1662
1485	1665
1487	1668
1489	1670
1489	1672
1488	1675
1486	1677
1485	1680
1486	1682
1488	1684
1490	1687
1490	1689
1489	1692
1488	1694
1487	1696
1486	1699
1486	1701
1486	1704
1487	1707
1487	1709
1486	1712
1485	1714
1485	1717
1485	1719
1486	1721
1486	1724
1484	1726
1484	1729
1485	1731
1488	1733
1490	1736
1490	1738
1492	1741
1494	1743
1495	1746
1495	1748
1492	1751
1491	1754
1491	1756
1494	1759
1495	1761
1491	1763
1488	1766
1487	1768
1487	1771
1488	1773
1489	1775
1490	1778
1491	1780
1491	1783
1491	1785
1490	1787
1489	1790
1487	1793
1486	1796
1486	1798
1487	1800
1488	1803
1488	1805
1489	1808
1489	1810
1490	1812
1491	1815
1491	1817
1492	1820
1492	1822
1491	1824
1491	1827
1491	1829
1489	1832
1487	1835
1482	1837
1475	1840
1471	1842
1472	1845
1479	1847
1485	1850
1487	1852
1488	1854
1488	1857
1488	1859
1487	1862
1487	1864
1487	1866
1486	1869
1484	1871
1483	1874
1483	1876
1484	1879
1485	1882
1487	1884
1488	1887
1490	1889
1490	1891
1491	1894
1492	1896
1492	1899
1492	1901
1492	1903
1492	1906
1491	1908
1490	1911
1489	1913
1488	1915
1486	1918
1486	1921
1488	1924
1488	1926
1487	1928
1487	1931
1486	1933
1486	1936
1486	1938
1486	1941
1486	1943
1485	1945
1485	1948
1483	1950
1482	1953
1483	1955
1484	1957
1485	1960
1487	1963
1487	1966
1486	1968
1486	1970
1487	1973
1487	1975
1487	1978
1488	1980
1488	1982
1486	1985
1484	1987
1483	1990
1485	1992
1486	1994
1486	1997
1486	1999
1486	2002
1486	2004
1487	2007
1488	2010
1488	2012
1485	2015
1484	2017
1484	2019
1484	2022
1484	2024
1485	2027
1484	2029
1484	2031
1485	2034
1486	2036
1487	2039
1488	2041
1488	2044
1487	2046
1483	2049
1481	2052
1480	2054
1479	2057
1481	2059
1482	2061
1483	2064
1483	2066
1485	2069
1486	2071
1487	2073
1486	2076
1486	2078
1485	2081
1486	2083
1487	2085
1488	2088
1489	2091
1489	2094
1489	2096
1487	2098
1485	2101
1482	2103
1482	2106
1485	2108
1488	2110
1489	2113
1489	2115
1488	2118
1488	2120
1487	2122
1487	2125
1486	2127
1486	2130
1483	2132
1482	2135
1480	2138
1480	2140
1480	2143
1482	2145
1483	2148
1484	2150
1485	2152
1485	2155
1485	2157
1483	2160
1482	2162
1482	2164
1481	2167
1481	2169
1482	2172
1483	2174
1486	2177
1488	2180
1491	2182
1492	2185
1491	2187
1489	2189
1485	2192
1483	2194
1483	2197
1484	2199
1483	2201
1482	2204
1482	2206
1483	2209
1484	2211
1484	2213
1482	2216
1481	2219
1482	2222
1485	2224
1486	2226
1485	2229
1484	2231
1484	2234
1484	2236
1484	2239
1484	2241
1484	2243
1484	2246
1484	2248
1482	2251
1481	2253
1479	2255
1479	2258
1482	2260
1483	2264
1483	2266
1483	2268
1481	2271
1481	2273
1483	2276
1484	2278
1485	2280
1484	2283
1484	2285
1483	2288
1482	2290
1482	2292
1482	2295
1482	2297
1483	2300
1484	2302
1485	2305
1485	2308
1485	2310
1486	2313
1485	2315
1485	2317
1483	2320
1483	2322
1482	2325
1481	2327
1480	2330
1480	2332
1481	2334
1481	2337
1481	2339
1481	2342
1483	2344
1484	2347
1486	2350
1486	2352
1486	2355
1486	2357
1485	2359
1484	2362
1484	2364
1487	2367
1489	2369
1489	2371
1485	2374
1483	2376
1484	2379
1487	2381
1488	2383
1489	2386
1488	2388
1486	2392
1485	2394
1483	2396
1481	2399
1480	2401
1477	2404
1476	2406
1478	2409
1482	2411
1484	2413
1486	2416
1487	2418
1488	2421
1488	2423
1488	2425
1487	2428
1488	2430
1489	2434
1488	2436
1487	2438
1485	2441
1485	2443
1486	2446
1488	2448
1488	2450
1488	2453
1487	2455
1490	2458
1491	2460
1490	2462
1488	2465
1486	2467
1486	2470
1486	2472
1487	2475
1486	2478
1484	2480
1483	2483
1482	2485
1485	2487
1488	2490
1492	2492
1493	2495
1491	2497
1489	2500
1488	2502
1489	2504
1490	2507
1489	2509
1489	2512
1489	2514
1488	2516
1485	2520
1482	2522
1483	2525
1486	2527
1490	2529
1490	2532
1490	2534
1490	2537
1488	2539
1488	2541
1488	2544
1490	2546
1492	2549
1492	2551
1491	2553
1490	2556
1489	2558
1487	2562
1486	2564
1486	2566
1487	2569
1489	2571
1489	2574
1489	2576
1483	2579
1478	2581
1477	2583
1480	2586
1484	2588
1486	2591
1488	2593
1488	2595
1489	2598
1488	2600
1487	2604
1486	2606
1487	2608
1489	2611
1489	2613
1489	2616
1488	2618
1487	2620
1487	2623
1488	2625
1488	2628
1487	2630
1486	2632
1484	2635
1482	2637
1482	2640
1483	2642
1484	2644
1485	2648
1485	2650
1485	2653
1485	2655
1486	2657
1487	2660
1486	2662
1483	2665
1482	2667
1485	2669
1489	2672
1491	2674
1491	2677
1490	2679
1489	2682
1488	2684
1486	2686
1484	2690
1484	2692
1485	2695
1485	2697
1486	2699
1487	2702
1487	2704
1486	2707
1487	2709
1489	2711
1489	2714
1487	2716
1483	2719
1481	2721
1481	2723
1483	2726
1485	2728
1487	2732
1490	2734
1493	2736
1495	2739
1495	2741
1493	2744
1488	2746
1485	2748
1484	2751
1485	2753
1485	2756
1485	2758
1485	2760
1485	2763
1485	2765
1485	2768
1481	2770
1478	2774
1477	2776
1479	2778
1481	2781
1481	2783
1482	2786
1484	2788
1486	2790
1486	2793
1486	2795
1488	2798
1490	2800
1491	2802
1491	2805
1490	2807
1490	2810
1489	2812
1489	2814
1488	2818
1487	2820
1486	2823
1485	2825
1485	2827
1485	2830
1486	2832
1485	2835
1483	2837
1481	2839
1477	2842
1474	2844
1475	2847
1479	2849
1485	2851
1488	2854
1488	2856
1488	2860
1488	2862
1488	2865
1488	2867
1488	2869
1488	2872
1488	2874
1488	2877
1488	2879
1488	2881
1486	2884
1484	2886
1483	2889
1483	2891
1485	2893
1486	2896
1486	2898
1485	2902
1486	2904
1487	2906
1488	2909
1489	2911
1490	2914
1489	2916
1488	2918
1488	2921
1486	2923
1484	2926
1484	2928
1485	2930
1488	2933
1489	2935
1488	2938
1485	2940
1484	2942
1484	2946
1487	2948
1488	2951
1487	2953
1487	2955
1488	2958
1490	2960
1491	2963
1490	2965
1488	2968
1485	2970
1485	2972
1483	2975
1483	2977
1484	2980
1487	2982
1491	2984
1492	2988
1493	2990
1492	2993
1492	2995
1490	2997
1489	3000
1488	3002
1489	3005
1489	3007
1490	3009
1490	3012
1489	3014
1487	3017
1486	3019
1486	3021
1487	3024
1490	3026
1491	3030
1491	3032
1491	3034
1491	3037
1492	3039
1492	3042
1493	3044
1493	3047
1492	3049
1492	3051
1491	3054
1490	3056
1488	3059
1488	3061
1488	3063
1490	3066
1492	3068
1493	3072
1493	3074
1493	3076
1492	3079
1493	3081
1493	3084
1493	3086
1492	3088
1491	3091
1491	3093
1491	3096
1491	3098
1490	3100
1487	3103
1484	3105
1484	3108
1487	3110
1491	3112
1491	3116
1490	3118
1489	3121
1489	3123
1490	3126
1491	3128
1489	3130
1486	3133
1485	3135
1486	3138
1491	3140
1495	3142
1497	3145
1496	3147
1496	3150
1495	3152
1495	3154
1494	3158
1490	3160
1487	3163
1487	3165
1490	3167
1492	3170
1492	3172
1490	3175
1488	3177
1488	3179
1489	3182
1489	3184
1490	3187
1489	3189
1489	3192
1489	3194
1490	3196
1490	3200
1489	3202
1484	3205
1483	3207
1482	3209
1487	3212
1492	3214
1495	3217
1495	3219
1494	3221
1493	3224
1494	3226
1493	3229
1492	3231
1491	3233
1491	3236
1492	3238
1492	3241
1491	3244
1489	3246
1490	3249
1494	3251
1495	3254
1495	3256
1493	3258
1490	3261
1487	3263
1486	3266
1487	3268
1488	3270
1488	3273
1488	3275
1489	3278
1491	3280
1492	3282
1492	3286
1491	3288
1491	3291
1491	3293
1491	3295
1490	3298
1488	3300
1486	3303
1484	3305
1484	3308
1486	3310
1488	3312
1486	3315
1485	3317
1485	3320
1487	3322
1489	3324
1488	3328
1487	3330
1486	3333
1486	3335
1485	3337
1484	3340
1485	3342
1486	3345
1487	3347
1487	3349
1488	3352
1488	3354
1488	3357
1488	3359
1488	3361
1486	3364
1486	3366
1488	3369
1490	3372
1492	3374
1487	3377
1482	3379
1481	3382
1482	3384
1485	3386
1486	3389
1486	3391
1486	3394
1484	3396
1484	3399
1487	3401
1489	3403
1490	3406
1490	3408
1489	3411
1489	3414
1488	3416
1487	3419
1486	3421
1485	3424
1485	3426
1485	3428
1485	3431
1485	3433
1485	3436
1484	3438
1483	3440
1484	3443
1486	3445
1488	3448
1488	3450
1486	3452
1483	3456
1479	3458
1476	3461
1480	3463
1487	3465
1492	3468
1493	3470
1492	3473
1491	3475
1490	3477
1488	3480
1488	3482
1488	3485
1488	3487
1489	3490
1490	3492
1491	3494
1489	3497
1487	3500
1486	3503
1487	3505
1488	3507
1488	3510
1485	3512
1483	3515
1482	3517
1485	3519
1486	3522
1486	3524
1486	3527
1486	3529
1484	3531
1482	3534
1484	3536
1486	3539
1486	3542
1483	3544
1482	3547
1483	3549
1486	3552
1487	3554
1488	3556
1489	3559
1490	3561
1488	3564
1486	3566
1484	3568
1485	3571
1486	3573
1486	3576
1485	3578
1483	3581
1481	3584
1481	3586
1483	3589
1483	3591
1483	3594
1482	3596
1481	3598
1483	3601
1484	3603
1482	3606
1482	3608
1482	3610
1483	3613
1483	3615
1482	3618
1479	3620
1482	3622
1484	3625
1486	3628
1487	3631
1488	3633
1489	3635
1490	3638
1489	3640
1488	3643
1488	3645
1488	3647
1488	3650
1488	3652
1488	3655
1488	3657
1487	3659
1484	3662
1481	3664
1479	3667
1480	3670
1481	3673
1481	3675
1480	3677
1481	3680
1484	3682
1487	3685
1488	3687
1487	3689
1486	3692
1486	3694
1486	3697
1485	3699
1483	3701
1483	3704
1485	3706
1486	3709
1486	3712
1485	3714
1484	3717
1482	3719
1482	3722
1485	3724
1488	3726
1488	3729
1487	3731
1484	3734
1484	3736
1486	3738
1486	3741
1486	3743
1485	3746
1485	3748
1484	3751
1481	3753
1480	3756
1481	3759
1483	3761
1484	3764
1485	3766
1485	3768
1486	3771
1485	3773
1484	3776
1485	3778
1486	3780
1487	3783
1487	3785
1486	3788
1485	3790
1485	3792
1485	3795
1485	3798
1485	3801
1486	3803
1487	3805
1490	3808
1490	3810
1488	3813
1487	3815
1487	3817
1486	3820
1486	3822
1486	3825
1486	3827
1485	3830
1485	3832
1484	3834
1481	3837
1479	3840
1479	3843
1482	3845
1485	3847
1485	3850
1485	3852
1482	3855
1481	3857
1482	3859
1486	3862
1487	3864
1486	3867
1487	3869
1487	3871
1486	3874
1484	3876
1483	3879
1482	3881
1482	3884
1483	3887
1485	3889
1485	3892
1486	3894
1488	3896
1488	3899
1489	3901
1488	3904
1487	3906
1487	3908
1487	3911
1487	3913
1487	3916
1487	3918
1487	3921
1486	3923
1485	3926
1483	3929
1482	3931
1483	3934
1485	3936
1487	3938
1489	3941
1488	3943
1487	3946
1487	3948
1487	3950
1486	3953
1483	3955
1481	3958
1483	3960
1487	3962
1489	3965
1489	3968
1486	3971
1485	3973
1485	3975
1485	3978
1486	3980
1488	3983
1491	3985
1492	3987
1492	3990
1491	3992
1490	3995
1490	3997
1489	4000
1487	4002
1485	4004
1484	4007
1484	4009
1486	4013
1487	4015
1487	4017
1487	4020
1486	4022
1484	4025
1483	4027
1484	4029
1486	4032
1488	4034
1489	4037
1488	4039
1486	4041
1487	4044
1488	4046
1491	4049
1491	4051
1491	4054
1490	4057
1490	4059
1488	4062
1486	4064
1486	4066
1486	4069
1488	4071
1488	4074
1488	4076
1489	4078
1489	4081
1489	4083
1488	4086
1485	4088
1483	4090
1482	4093
1483	4096
1486	4099
1487	4101
1486	4103
1486	4106
1485	4108
1485	4111
1486	4113
1485	4116
1485	4118
1484	4120
1481	4123
1480	4125
1482	4128
1486	4130
1488	4132
1490	4135
1489	4137
1487	4141
1484	4143
1482	4145
1481	4148
1483	4150
1487	4153
1490	4155
1492	4157
1492	4160
1492	4162
1492	4165
1491	4167
1488	4169
1486	4172
1486	4174
1487	4177
1487	4179
1485	4182
1483	4185
1480	4187
1481	4190
1484	4192
1488	4195
1489	4197
1489	4199
1488	4202
1486	4204
1485	4207
1485	4209
1485	4211
1485	4214
1483	4216
1483	4219
1483	4221
1486	4224
1488	4227
1488	4229
1489	4232
1489	4234
1489	4236
1489	4239
1490	4241
1490	4244
1488	4246
1485	4248
1485	4251
1487	4253
1489	4256
1489	4258
1487	4260
1486	4263
1485	4265
1485	4269
1485	4271
1485	4273
1485	4276
1485	4278
1486	4281
1486	4283
1486	4286
1485	4288
1485	4290
1486	4293
1486	4295
1486	4298
1483	4300
1482	4302
1485	4305
1488	4307
1490	4311
1490	4313
1488	4315
1487	4318
1486	4320
1486	4323
1485	4325
1483	4327
1483	4330
1484	4332
1486	4335
1487	4337
1488	4339
1488	4342
1489	4344
1489	4347
1488	4349
1488	4352
1487	4355
1486	4357
1485	4360
1485	4362
1486	4365
1486	4367
1487	4369
1488	4372
1488	4374
1487	4377
1487	4379
1486	4381
1485	4384
1485	4386
1483	4389
1481	4391
1479	4393
1477	4397
1479	4399
1484	4402
1485	4404
1484	4406
1483	4409
1485	4411
1491	4414
1494	4416
1494	4418
1492	4421
1489	4423
1488	4426
1487	4428
1487	4430
1488	4433
1488	4435
1486	4439
1485	4441
1485	4444
1485	4446
1487	4448
1487	4451
1488	4453
1489	4456
1489	4458
1489	4460
1488	4463
1486	4465
1484	4468
1483	4470
1484	4472
1485	4475
1485	4477
1485	4481
1485	4483
1484	4485
1482	4488
1482	4490
1483	4493
1481	4495
1479	4497
1480	4500
1484	4502
1488	4505
1490	4507
1489	4509
1488	4512
1488	4514
1487	4517
1486	4519
1487	4521
1488	4525
1489	4527
1490	4530
1490	4532
1489	4535
1488	4537
1486	4539
1484	4542
1483	4544
1482	4547
1482	4549
1484	4551
1487	4554
1488	4556
1487	4559
1485	4561
1483	4563
1483	4567
1483	4569
1485	4572
1487	4574
1484	4576
1482	4579
1482	4581
1485	4584
1488	4586
1489	4588
1489	4591
1491	4593
1493	4596
1493	4598
1491	4601
1488	4603
1486	4605
1485	4609
1486	4611
1487	4614
1488	4616
1489	4618
1490	4621
1489	4623
1489	4626
1489	4628
1487	4630
1487	4633
1487	4635
1488	4638
1486	4640
1484	4642
1483	4645
1483	4647
1484	4651
1485	4653
1486	4655
1486	4658
1486	4660
1486	4663
1486	4665
1486	4667
1486	4670
1486	4672
1486	4675
1487	4677
1487	4680
1486	4682
1486	4684
1485	4687
1485	4689
1484	4692
1485	4695
1486	4697
1487	4700
1488	4702
1488	4705
1490	4707
1490	4709
1490	4712
1490	4714
1489	4717
1487	4719
1484	4721
1480	4724
1481	4726
1484	4729
1488	4731
1489	4733
1489	4737
1488	4739
1488	4742
1488	4744
1488	4747
1487	4749
1484	4751
1482	4754
1481	4756
1481	4759
1482	4761
1484	4763
1485	4766
1486	4768
1486	4771
1486	4773
1485	4775
1484	4779
1483	4781
1483	4784
1484	4786
1486	4788
1490	4791
1492	4793
1492	4796
1491	4798
1492	4800
1493	4803
1493	4805
1493	4808
1492	4810
1490	4812
1487	4815
1485	4817
1483	4820
1483	4823
1486	4826
1489	4828
1491	4830
1492	4833
1493	4835
1493	4838
1492	4840
1490	4842
1488	4845
1487	4847
1487	4850
1486	4852
1483	4854
1481	4857
1480	4859
1482	4862
1486	4865
1489	4867
1490	4870
1490	4872
1490	4875
1489	4877
1489	4879
1487	4882
1485	4884
1485	4887
1485	4889
1485	4891
1487	4894
1487	4896
1488	4899
1487	4901
1486	4903
1485	4907
1484	4909
1483	4912
1483	4914
1481	4917
1478	4919
1476	4921
1479	4924
1483	4926
1485	4929
1487	4931
1488	4933
1489	4936
1487	4938
1485	4941
1484	4943
1484	4945
1484	4948
1483	4951
1483	4954
1486	4956
1487	4958
1487	4961
1487	4963
1487	4966
1488	4968
1489	4970
1489	4973
1488	4975
1487	4978
1486	4980
1488	4983
1488	4985
1488	4987
1488	4990
1488	4993
1487	4996
1484	4998
1483	5000
1484	5003
1487	5005
1489	5008
1488	5010
1486	5012
1485	5015
1486	5017
1487	5020
1488	5022
1488	5024
1488	5027
1487	5029
1485	5032
1486	5035
1488	5037
1490	5040
1492	5042
1492	5045
1491	5047
1490	5049
1488	5052
1488	5054
1488	5057
1488	5059
1489	5062
1486	5064
1484	5066
1483	5069
1485	5071
1488	5074
1489	5076
1491	5079
1491	5082
1491	5084
1489	5087
1487	5089
1484	5091
1481	5094
1480	5096
1480	5099
1483	5101
1486	5103
1489	5106
1490	5108
1489	5111
1489	5113
1489	5115
1488	5118
1485	5121
1483	5124
1482	5126
1485	5128
1488	5131
1490	5133
1492	5136
1492	5138
1492	5141
1491	5143
1489	5145
1489	5148
1488	5150
1490	5153
1490	5155
1492	5157
1492	5160
1491	5163
1490	5166
1488	5168
1487	5170
1486	5173
1486	5175
1485	5178
1485	5180
1485	5182
1486	5185
1487	5187
1487	5190
1488	5192
1489	5194
1488	5197
1488	5199
1485	5202
1482	5204
1479	5207
1479	5210
1484	5212
1488	5215
1491	5217
1491	5219
1491	5222
1492	5224
1493	5227
1493	5229
1492	5232
1491	5234
1490	5236
1492	5239
1494	5241
1494	5244
1491	5246
1489	5249
1488	5252
1489	5254
1490	5257
1491	5259
1488	5261
1484	5264
1483	5266
1485	5269
1488	5271
1488	5273
1488	5276
1489	5278
1490	5281
1489	5283
1489	5285
1488	5288
1487	5291
1486	5294
1485	5296
1486	5298
1486	5301
1487	5303
1487	5306
1486	5308
1485	5311
1485	5313
1486	5315
1488	5318
1489	5320
1490	5323
1490	5325
1490	5327
1490	5330
1490	5332
1490	5336
1490	5338
1490	5340
1490	5343
1490	5345
1490	5348
1490	5350
1490	5352
1489	5355
1489	5357
1489	5360
1489	5362
1489	5364
1488	5367
1488	5369
1488	5372
1488	5374
1488	5377
1488	5380
1487	5382
1487	5385
1487	5387
1487	5389
1488	5392
1489	5394
1490	5397
1489	5399
1489	5402
1496	5404
1511	5406
1517	5409
1507	5411
1496	5414
1497	5416
1500	5419
1507	5422
1510	5424
1502	5427
1477	5429
1453	5431
1454	5434
1507	5436
1537	5439
1563	5441
1581	5443
1600	5446
1635	5448
1656	5451
1632	5453
1600	5455
1579	5458
1610	5460
1650	5464
1676	5466
1654	5468
1610	5471
1587	5473
1557	5476
1549	5478
1552	5481
1564	5483
1598	5485
1660	5488
1685	5490
1696	5493
1670	5495
1630	5497
1600	5500
1587	5502
1583	5506
1583	5508
1585	5510
1577	5513
1568	5515
1571	5518
1589	5520
1618	5522
1645	5525
1643	5527
1599	5530
1546	5532
1542	5534
1567	5537
1575	5539
1574	5542
1537	5544
1524	5547
1547	5550
1582	5552
1586	5555
1585	5557
1592	5560
1578	5562
1576	5564
1572	5567
1570	5569
1582	5572
1582	5574
1567	5576
1539	5579
1530	5581
1567	5584
1603	5586
1620	5588
1616	5592
1602	5594
1592	5597
1589	5599
1568	5601
1527	5604
1497	5606
1483	5609
1477	5611
1488	5613
1536	5616
1562	5618
1556	5621
1523	5623
1492	5626
1475	5628
1509	5630
1556	5634
1589	5636
1572	5639
1531	5641
1508	5643
1492	5646
1469	5648
1451	5651
1462	5653
1491	5655
1510	5658
1517	5660
1518	5663
1500	5665
1489	5667
1514	5670
1508	5672
1494	5676
1482	5678
1465	5680
1453	5683
1525	5685
1573	5688
1549	5690
1481	5693
1466	5695
1481	5697
1470	5700
1446	5702
1439	5705
1443	5707
1506	5709
1571	5712
1582	5714
1539	5718
1490	5720
1468	5722
1458	5725
1490	5727
1530	5730
1528	5732
1501	5734
1465	5737
1462	5739
1494	5742
1525	5744
1542	5746
1520	5749
1475	5751
1464	5754
1486	5756
1479	5758
1459	5762
1508	5764
1547	5767
1538	5769
1496	5772
1492	5774
1504	5776
1512	5779
1508	5781
1494	5784
1486	5786
1472	5788
1454	5791
1467	5793
1494	5796
1481	5798
1486	5800
1490	5804
1485	5806
1491	5809
1505	5811
1509	5813
1496	5816
1493	5818
1487	5821
1492	5823
1475	5825
1463	5828
1454	5830
1482	5833
1491	5835
1482	5837
1433	5840
1445	5842
1461	5846
1488	5848
1491	5851
1517	5853
1526	5855
1503	5858
1469	5860
1454	5863
1475	5865
1465	5867
1448	5870
1437	5872
1459	5875
1480	5877
1517	5879
1514	5882
1460	5884
1433	5888
1454	5890
1468	5892
1463	5895
1459	5897
1474	5900
1486	5902
1493	5904
1481	5907
1456	5909
1489	5912
1500	5914
1498	5916
1504	5919
1488	5921
1428	5924
1384	5926
1430	5929
1491	5932
1507	5934
1515	5937
1495	5939
1475	5942
1489	5944
1511	5946
1523	5949
1497	5951
1450	5954
1424	5956
1427	5958
1451	5961
1463	5963
1468	5966
1467	5968
1466	5970
1470	5974
1473	5976
1463	5979
1473	5981
1499	5983
1472	5986
1465	5988
1475	5991
1511	5993
1535	5996
1500	5998
1422	6000
1403	6003
1434	6005
1460	6008
1512	6010
1524	6012
1498	6016
1497	6018
1475	6021
1477	6023
1465	6025
1429	6028
1437	6030
1496	6033
1496	6035
1457	6037
1454	6040
1472	6042
1481	6045
1454	6047
1472	6049
1491	6052
1504	6054
1492	6057
1493	6060
1503	6063
1478	6065
1473	6067
1489	6070
1496	6072
1484	6075
1460	6077
1453	6079
1468	6082
1472	6084
1435	6087
1394	6089
1416	6091
1466	6094
1485	6096
1483	6099
1505	6102
1501	6104
1476	6107
1487	6109
1491	6112
1479	6114
1486	6116
1522	6119
1509	6121
1482	6124
1469	6126
1471	6128
1470	6131
1485	6133
1467	6136
1414	6138
1419	6141
1481	6144
1488	6146
1470	6149
1460	6151
1493	6154
1511	6156
1473	6158
1440	6161
1460	6163
1476	6166
1450	6168
1471	6170
1496	6173
1486	6175
1466	6178
1467	6180
1429	6182
1396	6185
1419	6188
1498	6191
1524	6193
1492	6195
1463	6198
1475	6200
1476	6203
1447	6205
1440	6207
1477	6210
1505	6212
1496	6215
1478	6217
1465	6220
1452	6222
1470	6224
1469	6227
1459	6230
1469	6233
1489	6235
1510	6237
1502	6240
1482	6242
1455	6245
1431	6247
1431	6249
1464	6252
1434	6254
1405	6257
1441	6259
1485	6261
1502	6264
1503	6266
1480	6269
1455	6272
1425	6274
1426	6277
1410	6279
1413	6282
1455	6284
1517	6287
1520	6289
1500	6291
1476	6294
1462	6296
1471	6299
1481	6301
1465	6303
1441	6306
1434	6308
1445	6311
1475	6313
1490	6316
1476	6319
1481	6321
1497	6324
1474	6326
1428	6328
1433	6331
1433	6333
1428	6336
1437	6338
1477	6340
1458	6343
1443	6345
1470	6348
1505	6350
1502	6353
1457	6355
1438	6358
1469	6361
1491	6363
1492	6366
1468	6368
1456	6370
1442	6373
1432	6375
1422	6378
1419	6380
1415	6382
1397	6385
1409	6387
1493	6390
1512	6392
1468	6394
1472	6397
1504	6400
1506	6403
1468	6405
1427	6407
1430	6410
1478	6412
1506	6415
1505	6417
1483	6419
1477	6422
1457	6424
1453	6427
1453	6429
1443	6432
1441	6434
1450	6436
1449	6439
1434	6441
1441	6445
1496	6447
1519	6449
1489	6452
1468	6454
1475	6457
1476	6459
1483	6461
1477	6464
1469	6466
1461	6469
1450	6471
1461	6473
1499	6476
1511	6478
1477	6481
1455	6483
1489	6486
1504	6489
1500	6491
1480	6494
1474	6496
1488	6498
1485	6501
1461	6503
1455	6506
1498	6508
1529	6510
1508	6513
1436	6515
1420	6518
1484	6520
1509	6522
1494	6525
1486	6528
1508	6531
1495	6533
1475	6536
1477	6538
1505	6540
1504	6543
1477	6545
1458	6548
1453	6550
1468	6552
1535	6555
1547	6557
1516	6560
1473	6562
1450	6564
1443	6567
1436	6569
1460	6573
1480	6575
1482	6577
1487	6580
1482	6582
1481	6585
1531	6587
1537	6589
1502	6592
1477	6594
1479	6597
1489	6599
1487	6601
1519	6604
1486	6606
1432	6609
1407	6611
1475	6615
1507	6617
1475	6619
1465	6622
1502	6624
1550	6627
1547	6629
1498	6631
1468	6634
1463	6636
1436	6639
1437	6641
1454	6643
1472	6646
1491	6648
1517	6651
1514	6653
1531	6656
1542	6659
1520	6661
1476	6664
1463	6666
1459	6668
1438	6671
1419	6673
1444	6676
1473	6678
1488	6680
1521	6683
1574	6685
1591	6688
1520	6690
1452	6693
1441	6695
1488	6697
1499	6701
1489	6703
1489	6706
1475	6708
1456	6710
1448	6713
1459	6715
1477	6718
1492	6720
1497	6722
1493	6725
1481	6727
1483	6730
1529	6732
1533	6734
1487	6737
1448	6739
1464	6743
1519	6745
1557	6747
1541	6750
1485	6752
1405	6755
1375	6757
1420	6759
1471	6762
1490	6764
1537	6767
1555	6769
1540	6772
1501	6774
1467	6776
1455	6779
1440	6781
1441	6785
1459	6787
1499	6789
1509	6792
1497	6794
1504	6797
1517	6799
1503	6801
1439	6804
1394	6806
1422	6809
1483	6811
1476	6813
1459	6816
1518	6818
1538	6821
1519	6823
1484	6825
1479	6829
1474	6831
1442	6834
1413	6836
1450	6838
1486	6841
1517	6843
1544	6846
1538	6848
1520	6851
1483	6853
1455	6855
1422	6858
1404	6860
1422	6863
1460	6865
1504	6867
1519	6871
1501	6873
1483	6876
1468	6878
1460	6880
1464	6883
1448	6885
1431	6888
1448	6890
1492	6892
1514	6895
1498	6897
1480	6900
1466	6902
1458	6904
1469	6907
1481	6909
1464	6913
1456	6915
1459	6917
1485	6920
1519	6922
1535	6925
1508	6927
1481	6930
1462	6932
1444	6934
1430	6937
1430	6939
1444	6942
1482	6944
1535	6946
1554	6949
1540	6951
1520	6955
1466	6957
1421	6959
1404	6962
1397	6964
1419	6967
1449	6969
1492	6971
1541	6974
1560	6976
1534	6979
1479	6981
1448	6983
1451	6986
1461	6988
1469	6991
1476	6993
1463	6996
1439	6999
1453	7001
1475	7004
1463	7006
1441	7009
1495	7011
1543	7013
1523	7016
1492	7018
1475	7021
1440	7023
1428	7025
1417	7028
1438	7030
1519	7033
1584	7035
1589	7037
1574	7041
1537	7043
1477	7046
1447	7048
1446	7050
1459	7053
1467	7055
1482	7058
1481	7060
1504	7062
1529	7065
1520	7067
1506	7070
1493	7072
1492	7075
1517	7077
1520	7079
1506	7083
1474	7085
1436	7088
1430	7090
1474	7092
1491	7095
1484	7097
1493	7100
1509	7102
1495	7104
1477	7107
1462	7109
1465	7112
1471	7114
1473	7116
1442	7119
1429	7121
1437	7124
1439	7127
1465	7129
1486	7132
1486	7134
1460	7137
1453	7139
1473	7142
1493	7144
1505	7146
1518	7149
1531	7151
1509	7154
1468	7156
1454	7158
1464	7161
1486	7163
1467	7166
1455	7169
1500	7171
1535	7174
1572	7176
1581	7179
1561	7181
1510	7183
1451	7186
1437	7188
1434	7191
1473	7193
1496	7195
1496	7198
1479	7200
1481	7203
1479	7205
1458	7208
1452	7211
1459	7213
1461	7216
1433	7218
1413	7221
1440	7223
1512	7225
1553	7228
1539	7230
1499	7233
1487	7235
1476	7237
1469	7240
1469	7242
1475	7245
1525	7247
1559	7249
1556	7252
1533	7255
1522	7258
1496	7260
1462	7262
1434	7265
1420	7267
1433	7270
1459	7272
1468	7274
1479	7277
1516	7279
1543	7282
1513	7284
1485	7287
1461	7289
1444	7291
1442	7294
1453	7297
1471	7300
1481	7302
1454	7304
1449	7307
1492	7309
1520	7312
1521	7314
1543	7316
1587	7319
1579	7321
1557	7324
1542	7326
1497	7328
1432	7331
1405	7333
1416	7336
1443	7339
1471	7341
1493	7344
1542	7346
1554	7349
1531	7351
1482	7354
1439	7356
1460	7358
1481	7361
1464	7363
1433	7366
1432	7368
1424	7370
1407	7373
1440	7375
1534	7378
1582	7380
1577	7383
1560	7386
1523	7388
1484	7391
1482	7393
1477	7395
1431	7398
1401	7400
1416	7403
1448	7405
1455	7407
1494	7410
1541	7412
1547	7415
1518	7417
1507	7419
1513	7422
1494	7425
1464	7428
1465	7430
1459	7433
1416	7435
1402	7437
1446	7440
1514	7442
1548	7445
1578	7447
1568	7449
1525	7452
1503	7454
1472	7457
1443	7459
1451	7461
1463	7464
1449	7467
1436	7470
1434	7472
1437	7474
1453	7477
1463	7479
1469	7482
1484	7484
1498	7486
1517	7489
1514	7491
1483	7494
1475	7496
1466	7499
1451	7501
1472	7503
1485	7506
1473	7508
1465	7512
1485	7514
1479	7516
1459	7519
1476	7521
1480	7524
1470	7526
1458	7528
1463	7531
1478	7533
1514	7536
1547	7538
1553	7540
1515	7543
1471	7545
1447	7548
1427	7550
1403	7553
1404	7556
1421	7558
1436	7561
1432	7563
1440	7566
1473	7568
1500	7570
1503	7573
1512	7575
1517	7578
1504	7580
1496	7582
1483	7585
1499	7587
1494	7590
1482	7592
1528	7595
1593	7598
1607	7600
1544	7603
1479	7605
1461	7607
1469	7610
1457	7612
1446	7615
1443	7617
1443	7619
1438	7622
1435	7624
1445	7627
1469	7629
1489	7632
1506	7634
1499	7636
1474	7640
1451	7642
1440	7645
1434	7647
1425	7649
1440	7652
1486	7654
1497	7657
1512	7659
1522	7661
1539	7664
1511	7666
1496	7669
1498	7671
1478	7673
1455	7676
1459	7678
1455	7682
1473	7684
1492	7686
1494	7689
1475	7691
1453	7694
1452	7696
1458	7698
1468	7701
1481	7703
1458	7706
1453	7708
1476	7711
1491	7713
1504	7715
1497	7718
1499	7720
1462	7724
1436	7726
1436	7728
1435	7731
1417	7733
1452	7736
1528	7738
1536	7740
1519	7743
1524	7745
1533	7748
1479	7750
1409	7752
1437	7755
1476	7757
1466	7760
1454	7762
1443	7764
1444	7768
1456	7770
1501	7773
1557	7775
1550	7778
1507	7780
1471	7782
1439	7785
1434	7787
1419	7790
1389	7792
1389	7794
1450	7797
1509	7799
1524	7802
1525	7804
1519	7806
1516	7810
1515	7812
1499	7815
1488	7817
1494	7819
1474	7822
1439	7824
1450	7827
1516	7829
1555	7831
1526	7834
1489	7836
1459	7839
1443	7841
1436	7844
1434	7846
1433	7848
1445	7852
1455	7854
1507	7857
1537	7859
1497	7861
1450	7864
1461	7866
1497	7869
1498	7871
1467	7873
1465	7876
1489	7878
1510	7881
1523	7883
1544	7885
1513	7888
1482	7890
1499	7894
1501	7896
1481	7898
1463	7901
1452	7903
1442	7906
1446	7908
1468	7911
1485	7913
1472	7915
1445	7918
1433	7920
1472	7923
1518	7925
1485	7927
1468	7930
1475	7932
1482	7936
1511	7938
1547	7940
1565	7943
1539	7945
1488	7948
1441	7950
1444	7952
1475	7955
1516	7957
1547	7960
1519	7962
1481	7964
1477	7967
1485	7969
1499	7972
1501	7974
1488	7977
1472	7980
1480	7982
1490	7985
1482	7987
1477	7990
1491	7992
1509	7994
1499	7997
1461	7999
1478	8002
1514	8004
1508	8006
1499	8009
1503	8011
1500	8014
1493	8016
1485	8018
1479	8022
1477	8024
1463	8027
1440	8029
1444	8031
1466	8034
1489	8036
1503	8039
1483	8041
1468	8043
1485	8046
1504	8048
1487	8051
1485	8053
1483	8055
1470	8058
1447	8060
1431	8064
1440	8066
1468	8069
1505	8071
1513	8073
1509	8076
1502	8078
1500	8081
1517	8083
1516	8085
1488	8088
1459	8090
1457	8093
1450	8095
1440	8097
1435	8100
1441	8102
1429	8105
1443	8108
1491	8110
1532	8113
1505	8115
1526	8118
1573	8120
1564	8122
1490	8125
1449	8127
1462	8130
1478	8132
1475	8134
1486	8137
1502	8139
1511	8142
1509	8144
1501	8146
1480	8150
1462	8152
1471	8155
1483	8157
1482	8160
1494	8162
1504	8164
1525	8167
1527	8169
1500	8172
1487	8174
1465	8176
1452	8179
1447	8181
1445	8184
1438	8186
1435	8188
1465	8192
1487	8194
1497	8197
1456	8199
1431	8201
1472	8204
1520	8206
1549	8209
1541	8211
1484	8213
1462	8216
1487	8218
1492	8221
1463	8223
1482	8225
1532	8228
1546	8230
1516	8233
1461	8236
1474	8239
1508	8241
1525	8243
1511	8246
1482	8248
1457	8251
1445	8253
1467	8255
1492	8258
1514	8260
1489	8263
1472	8265
1476	8267
1467	8270
1474	8272
1474	8275
1452	8278
1445	8280
1475	8283
1510	8285
1502	8288
1490	8290
1507	8292
1533	8295
1538	8297
1509	8300
1481	8302
1471	8304
1456	8307
1456	8309
1469	8312
1454	8314
1458	8317
1483	8320
1475	8322
1454	8325
1472	8327
1499	8330
1519	8332
1536	8334
1524	8337
1492	8339
1476	8342
1501	8344
1513	8346
1507	8349
1480	8351
1425	8354
1397	8356
1423	8358
1505	8361
1553	8364
1530	8367
1505	8369
1543	8371
1583	8374
1555	8376
1507	8379
1477	8381
1465	8383
1447	8386
1441	8388
1441	8391
1451	8393
1488	8396
1515	8398
1526	8400
1554	8403
1539	8406
1491	8409
1482	8411
1496	8413
1482	8416
1454	8418
1443	8421
1445	8423
1447	8425
1441	8428
1431	8430
1439	8433
1487	8435
1575	8437
1578	8440
1535	8442
1496	8445
1469	8448
1464	8450
1464	8453
1473	8455
1472	8458
1438	8460
1436	8463
1500	8465
1543	8467
1538	8470
1523	8472
1512	8475
1517	8477
1509	8479
1498	8482
1487	8484
1471	8487
1455	8489
1460	8492
1448	8495
1451	8497
1469	8500
1503	8502
1525	8504
1541	8507
1531	8509
1496	8512
1514	8514
1533	8516
1503	8519
1479	8521
1463	8524
1452	8526
1461	8528
1500	8531
1516	8534
1499	8537
1503	8539
1519	8542
1570	8544
1601	8546
1586	8549
1520	8551
1447	8554
1449	8556
1482	8558
1498	8561
1481	8563
1472	8566
1495	8568
1492	8570
1487	8573
1479	8576
1489	8579
1517	8581
1489	8583
1450	8586
1484	8588
1516	8591
1522	8593
1504	8595
1492	8598
1467	8600
1470	8603
1463	8605
1453	8608
1466	8610
1512	8612
1529	8615
1536	8617
1570	8621
1567	8623
1530	8625
1475	8628
1454	8630
1441	8633
1428	8635
1425	8637
1431	8640
1416	8642
1411	8645
1514	8647
1618	8649
1617	8652
1559	8654
1512	8657
1484	8659
1440	8662
1427	8665
1441	8667
1423	8670
1402	8672
1406	8674
1468	8677
1541	8679
1550	8682
1540	8684
1530	8686
1518	8689
1511	8691
1505	8694
1467	8696
1437	8699
1451	8701
1481	8704
1489	8707
1482	8709
1477	8712
1479	8714
1464	8716
1439	8719
1497	8721
1559	8724
1555	8726
1516	8728
1465	8731
1448	8733
1450	8736
1445	8738
1450	8740
1468	8743
1496	8745
1501	8749
1470	8751
1408	8753
1384	8756
1469	8758
1560	8761
1572	8763
1544	8766
1543	8768
1533	8770
1501	8773
1463	8775
1447	8778
1455	8780
1458	8782
1458	8785
1463	8787
1454	8791
1469	8793
1503	8795
1530	8798
1558	8800
1553	8803
1510	8805
1476	8807
1484	8810
1500	8812
1504	8815
1510	8817
1496	8819
1486	8822
1504	8824
1526	8827
1533	8829
1519	8833
1469	8835
1428	8837
1426	8840
1447	8842
1497	8845
1524	8847
1544	8849
1562	8852
1561	8854
1520	8857
1482	8859
1486	8861
1492	8864
1514	8866
1556	8869
1572	8871
1532	8873
1443	8877
1400	8879
1458	8882
1523	8884
1575	8886
1564	8889
1506	8891
1474	8894
1450	8896
1456	8898
1475	8901
1491	8903
1490	8906
1469	8908
1443	8911
1426	8913
1414	8915
1417	8919
1432	8921
1469	8924
1524	8926
1563	8928
1564	8931
1529	8933
1499	8936
1468	8938
1487	8940
1498	8943
1525	8945
1566	8948
1557	8950
1512	8952
1459	8955
1447	8957
1449	8961
1452	8963
1449	8965
1469	8968
1509	8970
1532	8973
1501	8975
1468	8977
1489	8980
1528	8982
1523	8985
1496	8987
1460	8990
1443	8992
1446	8994
1425	8997
1391	8999
1382	9003
1400	9005
1451	9007
1497	9010
1555	9012
1564	9015
1545	9017
1518	9019
1516	9022
1499	9024
1460	9027
1438	9029
1430	9031
1428	9034
1440	9036
1445	9039
1437	9041
1446	9043
1509	9047
1574	9049
1577	9052
1522	9054
1479	9057
1449	9059
1456	9061
1465	9064
1447	9066
1425	9069
1431	9071
1442	9073
1447	9076
1480	9078
1530	9081
1580	9083
1580	9085
1549	9089
1524	9091
1473	9094
1417	9096
1410	9098
1467	9101
1530	9103
1555	9106
1564	9108
1554	9110
1517	9113
1477	9115
1442	9118
1448	9120
1478	9122
1495	9125
1511	9127
1500	9131
1468	9133
1432	9136
1411	9138
1425	9140
1448	9143
1466	9145
1492	9148
1517	9150
1528	9152
1494	9155
1462	9157
1432	9160
1414	9162
1478	9164
1565	9167
1577	9169
1536	9172
1497	9175
1460	9177
1430	9180
1454	9182
1488	9185
1471	9187
1444	9189
1479	9192
1521	9194
1548	9197
1560	9199
1522	9202
1476	9204
1452	9206
1464	9209
1488	9211
1504	9214
1505	9217
1490	9219
1523	9222
1525	9224
1454	9227
1398	9229
1434	9231
1490	9234
1481	9236
1470	9239
1467	9241
1453	9243
1472	9246
1520	9248
1556	9251
1565	9253
1533	9255
1485	9259
1461	9261
1432	9264
1403	9266
1400	9268
1437	9271
1445	9273
1436	9276
1448	9278
1475	9281
1528	9283
1582	9285
1559	9288
1483	9290
1458	9293
1476	9295
1482	9297
1452	9300
1435	9303
1455	9306
1518	9308
1557	9310
1559	9313
1541	9315
1477	9318
1443	9320
1427	9322
1417	9325
1421	9327
1453	9330
1474	9332
1468	9334
1461	9337
1469	9339
1507	9342
1528	9345
1544	9348
1540	9350
1524	9352
1492	9355
1470	9357
1461	9360
1447	9362
1423	9364
1418	9367
1413	9369
1428	9372
1482	9374
1504	9376
1495	9379
1495	9381
1504	9384
1501	9387
1472	9389
1444	9392
1423	9394
1414	9397
1442	9399
1467	9401
1467	9404
1470	9406
1497	9409
1501	9411
1507	9414
1456	9416
1414	9418
1421	9421
1491	9423
1513	9426
1491	9428
1471	9431
1444	9434
1445	9436
1475	9439
1523	9441
1541	9443
1518	9446
1473	9448
1463	9451
1479	9453
1470	9455
1466	9458
1457	9460
1448	9463
1452	9465
1489	9467
1500	9470
1490	9473
1459	9476
1443	9478
1429	9481
1411	9483
1422	9485
1459	9488
1500	9490
1502	9493
1479	9495
1479	9497
1464	9500
1468	9502
1516	9505
1540	9507
1539	9509
1495	9512
1444	9515
1442	9518
1491	9520
1554	9522
1565	9525
1529	9527
1482	9530
1453	9532
1438	9534
1427	9537
1426	9539
1441	9542
1475	9544
1504	9547
1533	9549
1535	9551
1516	9554
1504	9556
1491	9560
1478	9562
1468	9564
1461	9567
1442	9569
1419	9572
1438	9574
1487	9576
1512	9579
1482	9581
1441	9584
1488	9586
1533	9588
1532	9591
1508	9593
1477	9596
1450	9598
1429	9601
1427	9604
1446	9606
1427	9609
1427	9611
1461	9614
1518	9616
1511	9618
1483	9621
1460	9623
1453	9626
1473	9628
1501	9630
1502	9633
1489	9635
1465	9638
1442	9640
1432	9643
1451	9646
1459	9648
1445	9651
1444	9653
1447	9655
1471	9658
1489	9660
1492	9663
1464	9665
1444	9667
1454	9670
1497	9672
1533	9675
1537	9677
1530	9679
1553	9682
1557	9684
1517	9688
1447	9690
1406	9693
1443	9695
1467	9697
1468	9700
1458	9702
1442	9705
1442	9707
1455	9709
1511	9712
1538	9714
1545	9717
1501	9719
1457	9721
1458	9724
1464	9726
1465	9730
1454	9732
1431	9734
1414	9737
1437	9739
1500	9742
1539	9744
1552	9746
1519	9749
1497	9751
1497	9754
1475	9756
1452	9759
1435	9761
1431	9763
1428	9766
1451	9768
1489	9772
1495	9774
1473	9776
1442	9779
1431	9781
1418	9784
1399	9786
1408	9788
1456	9791
1481	9793
1462	9796
1453	9798
1462	9800
1483	9803
1490	9805
1476	9808
1465	9810
1457	9812
1443	9816
1446	9818
1469	9821
1493	9823
1474	9825
1480	9828
1526	9830
1532	9833
1529	9835
1523	9838
1500	9840
1458	9842
1439	9845
1439	9847
1440	9850
1447	9852
1466	9854
1471	9858
1444	9860
1444	9863
1483	9865
1524	9867
1535	9870
1516	9872
1491	9875
1503	9877
1499	9879
1478	9882
1464	9884
1447	9887
1425	9889
1422	9891
1467	9894
1515	9896
1503	9900
1469	9902
1470	9905
1498	9907
1523	9909
1544	9912
1532	9914
1494	9917
1450	9919
1423	9921
1427	9924
1470	9926
1511	9929
1504	9931
1457	9933
1416	9936
1409	9938
1425	9942
1456	9944
1441	9946
1420	9949
1431	9951
1447	9954
1459	9956
1482	9958
1471	9961
1444	9963
1452	9966
1492	9968
1502	9971
1495	9973
1474	9975
1473	9978
1485	9980
1510	9984
1533	9986
1526	9988
1506	9991
1497	9993
1517	9996
1540	9998
1519	10000
1530	10003
1548	10005
1529	10008
1483	10010
1444	10013
1445	10015
1456	10018
1472	10020
1492	10023
1493	10025
1474	10028
1445	10031
1419	10033
1444	10036
1511	10038
1568	10041
1557	10043
1525	10046
1497	10048
1475	10051
1456	10053
1451	10055
1448	10058
1444	10060
1447	10063
1463	10065
1473	10068
1499	10071
1502	10074
1486	10076
1506	10079
1539	10081
1554	10083
1533	10086
1510	10088
1497	10091
1495	10093
1475	10096
1457	10098
1442	10101
1439	10103
1448	10106
1459	10108
1473	10110
1470	10114
1479	10116
1529	10119
1546	10121
1502	10124
1451	10126
1431	10129
1449	10131
1488	10134
1498	10136
1493	10139
1478	10141
1469	10143
1477	10146
1483	10148
1497	10151
1519	10153
1538	10157
1500	10159
1470	10162
1463	10164
1477	10167
1487	10169
1493	10171
1478	10174
1474	10176
1468	10179
1452	10181
1443	10184
1447	10186
1474	10189
1497	10191
1492	10194
1465	10196
1480	10199
1485	10202
1496	10204
1530	10207
1538	10209
1522	10212
1488	10214
1471	10217
1468	10219
1461	10222
1455	10224
1455	10227
1471	10229
1477	10231
1472	10234
1460	10236
1442	10240
1447	10242
1474	10245
1485	10247
1476	10250
1462	10252
1465	10255
1455	10257
1460	10259
1491	10262
1532	10264
1558	10267
1551	10269
1521	10272
1487	10274
1484	10277
1499	10279
1481	10283
1454	10285
1460	10287
1465	10290
1434	10292
1412	10295
1428	10297
1472	10300
1529	10302
1555	10305
1548	10307
1537	10310
1517	10312
1489	10315
1452	10317
1408	10319
1422	10322
1454	10324
1495	10328
1504	10330
1469	10333
1440	10335
1442	10338
1436	10340
1430	10343
1419	10345
1436	10347
1476	10350
1505	10352
1487	10355
1460	10357
1474	10360
1522	10362
1540	10365
1531	10368
1492	10371
1463	10373
1471	10375
1470	10378
1460	10380
1447	10383
1443	10385
1444	10388
1439	10390
1436	10393
1438	10395
1424	10398
1417	10400
1429	10402
1444	10405
1453	10407
1452	10411
1446	10413
1451	10416
1475	10418
1483	10421
1470	10423
1463	10426
1459	10428
1451	10431
1453	10433
1447	10435
1440	10438
1459	10440
1490	10443
1511	10445
1504	10448
1477	10450
1440	10454
1416	10456
1417	10459
1424	10461
1439	10463
1448	10466
1447	10468
1453	10471
1469	10473
1496	10476
1512	10478
1507	10481
1471	10483
1442	10486
1433	10488
1428	10490
1423	10493
1418	10496
1420	10499
1439	10501
1452	10504
1445	10506
1431	10509
1432	10511
1445	10514
1450	10516
1455	10519
1463	10521
1473	10523
1471	10526
1460	10528
1451	10531
1451	10533
1455	10536
1460	10539
1463	10542
1464	10544
1455	10547
1452	10549
1464	10551
1467	10554
1458	10556
1446	10559
1440	10561
1441	10564
1443	10566
1448	10569
1455	10571
1457	10574
1455	10576
1448	10578
1441	10582
1437	10584
1438	10587
1444	10589
1454	10592
1455	10594
1452	10597
1450	10599
1452	10602
1456	10604
1458	10606
1459	10609
1460	10611
1459	10614
1456	10616
1454	10619
1455	10621
1456	10625
1458	10627
1462	10630
1464	10632
1466	10635
1466	10637
1465	10639
1460	10642
1456	10644
1453	10647
1451	10649
1451	10652
1452	10654
1454	10657
1454	10659
1454	10662
1453	10664
1452	10667
1450	10670
1453	10672
1458	10675
1459	10677
1457	10680
1455	10682
1456	10685
1460	10687
1464	10690
1467	10692
1467	10694
1468	10697
1471	10699
1475	10702
1479	10704
1479	10707
1479	10710
1478	10713
1477	10715
1476	10718
1474	10720
1473	10723
1474	10725
1476	10727
1480	10730
1482	10732
1481	10735
1480	10737
1478	10740
1477	10742
1475	10745
1471	10747
1471	10750
1477	10753
1485	10755
1490	10758
1493	10760
1494	10763
1493	10765
1492	10768
1490	10770
1489	10773
1491	10775
1496	10778
1498	10780
1498	10782
1498	10785
1500	10787
1504	10790
1505	10792
1503	10796
1500	10798
1498	10801
1494	10803
1491	10806
1488	10808
1486	10810
1489	10813
1493	10815
1498	10818
1499	10820
1499	10823
1498	10825
1498	10828
1498	10830
1498	10833
1498	10835
1497	10839
1496	10841
1495	10843
1494	10846
1493	10848
1493	10851
1491	10853
1489	10856
1487	10858
1489	10861
1492	10863
1496	10866
1498	10868
1500	10870
1501	10873
1500	10875
1498	10878
1496	10881
1500	10884
1503	10886
1502	10889
1502	10891
1501	10894
1500	10896
1500	10898
1499	10901
1500	10903
1501	10906
1503	10908
1505	10911
1503	10913
1497	10916
1490	10918
1490	10921
1493	10924
1495	10927
1494	10929
1493	10931
1495	10934
1499	10936
1500	10939
1502	10941
1503	10944
1503	10946
1502	10949
1500	10951
1500	10954
1500	10956
1500	10958
1500	10961
1498	10963
1496	10967
1497	10969
1498	10972
1499	10974
1502	10977
1500	10979
1496	10982
1493	10984
1495	10986
1502	10989
1506	10991
1505	10994
1505	10996
1504	10999
1503	11001
1502	11004
1502	11006
1502	11010
1502	11012
1499	11014
1496	11017
1495	11019
1499	11022
1500	11024
1503	11027
1505	11029
1506	11032
1503	11034
1497	11037
1492	11039
1491	11042
1495	11044
1498	11046
1499	11049
1499	11052
1499	11055
1499	11057
1498	11060
1498	11062
1498	11065
1497	11067
1495	11070
1494	11072
1494	11074
1493	11077
1492	11079
1492	11082
1494	11084
1494	11087
1494	11089
1495	11092
1494	11095
1494	11098
1494	11100
1494	11102
1493	11105
1492	11107
1493	11110
1493	11112
1494	11115
1495	11117
1495	11120
1496	11122
1497	11125
1497	11127
1497	11130
1497	11132
1496	11134
1494	11138
1493	11140
1494	11143
1496	11145
1497	11148
1496	11150
1495	11153
1494	11155
1492	11158
1490	11160
1488	11162
1489	11165
1491	11167
1492	11170
1492	11172
1490	11175
1489	11177
1492	11181
1495	11183
1498	11186
1498	11188
1496	11190
1494	11193
1495	11195
1498	11198
1498	11200
1495	11203
1492	11205
1491	11208
1491	11210
1493	11213
1493	11215
1492	11217
1490	11220
1488	11223
1485	11226
1487	11228
1491	11231
1494	11233
1494	11236
1495	11238
1497	11241
1498	11243
1498	11246
1498	11248
1498	11250
1498	11253
1498	11255
1497	11258
1492	11260
1489	11264
1487	11266
1487	11269
1488	11271
1490	11274
1493	11276
1496	11278
1498	11281
1498	11283
1498	11286
1497	11288
1495	11291
1492	11293
1491	11296
1494	11298
1496	11301
1497	11303
1497	11305
1496	11309
1494	11311
1494	11314
1492	11316
1489	11319
1488	11321
1488	11324
1489	11326
1490	11329
1490	11331
1490	11333
1489	11336
1485	11338
1481	11341
1481	11343
1483	11346
1484	11348
1487	11352
1488	11354
1490	11357
1491	11359
1491	11362
1490	11364
1490	11366
1491	11369
1492	11371
1492	11374
1491	11376
1490	11379
1488	11381
1487	11384
1490	11386
1492	11389
1491	11392
1490	11394
1487	11397
1485	11399
1483	11402
1482	11404
1482	11407
1483	11409
1485	11412
1487	11414
1488	11417
1488	11419
1488	11421
1487	11424
1488	11426
1489	11429
1490	11431
1489	11435
1487	11437
1486	11440
1487	11442
1489	11445
1491	11447
1492	11450
1492	11452
1493	11454
1493	11457
1493	11459
1492	11462
1489	11464
1487	11467
1486	11469
1486	11472
1486	11474
1485	11478
1486	11480
1486	11482
1485	11485
1484	11487
1485	11490
1488	11492
1489	11495
1489	11497
1488	11500
1487	11502
1487	11505
1487	11507
1488	11509
1489	11512
1490	11514
1490	11517
1490	11520
1490	11523
1489	11525
1489	11528
1488	11530
1486	11533
1485	11535
1484	11538
1484	11540
1485	11542
1485	11545
1486	11547
1487	11550
1488	11552
1491	11555
1494	11557
1495	11560
1495	11563
1494	11566
1491	11568
1489	11570
1488	11573
1488	11575
1487	11578
1487	11580
1486	11583
1486	11585
1486	11588
1487	11590
1488	11593
1488	11595
1489	11597
1489	11600
1488	11602
1486	11606
1484	11608
1484	11611
1486	11613
1489	11616
1490	11618
1491	11621
1491	11623
1490	11626
1489	11628
1490	11630
1491	11633
1491	11635
1490	11638
1489	11640
1488	11643
1488	11645
1486	11649
1484	11651
1483	11654
1482	11656
1483	11658
1483	11661
1483	11663
1481	11666
1480	11668
1480	11671
1481	11673
1483	11676
1484	11678
1485	11681
1486	11683
1485	11685
1484	11688
1482	11691
1480	11694
1481	11696
1482	11699
1484	11701
1485	11704
1487	11706
1487	11709
1487	11711
1486	11713
1485	11716
1484	11718
1483	11721
1484	11723
1484	11726
1484	11728
1483	11731
1483	11734
1484	11737
1484	11739
1485	11742
1484	11744
1484	11746
1482	11749
1482	11751
1481	11754
1480	11756
1478	11759
1475	11761
1474	11764
1473	11766
1472	11769
1471	11771
1471	11773
1471	11777
1471	11779
1472	11782
1474	11784
1475	11787
1476	11789
1478	11792
1477	11794
1475	11797
1475	11799
1477	11801
1478	11804
1478	11806
1477	11809
1477	11811
1476	11814
1476	11816
1476	11820
1476	11822
1477	11825
1476	11827
1476	11830
1476	11832
1475	11834
1475	11837
1476	11839
1476	11842
1475	11844
1474	11847
1472	11849
1472	11852
1473	11854
1474	11857
1475	11859
1475	11862
1476	11865
1475	11867
1476	11870
1476	11872
1476	11875
1476	11877
1477	11880
1476	11882
1476	11885
1475	11887
1473	11889
1471	11892
1470	11894
1472	11897
1474	11899
1475	11902
1476	11905
1476	11908
1476	11910
1477	11913
1477	11915
1478	11918
1478	11920
1477	11922
1477	11925
1478	11927
1477	11930
1476	11932
1476	11935
1474	11937
1474	11940
1473	11942
1473	11945
1475	11948
1476	11950
1477	11953
1476	11955
1475	11958
1475	11960
1476	11963
1476	11965
1474	11968
1473	11970
1472	11973
1471	11975
1470	11977
1471	11980
1471	11982
1471	11985
1471	11987
1473	11991
1474	11993
1474	11996
1474	11998
1475	12001
1473	12003
1471	12005
1472	12008
1472	12010
1471	12013
1470	12015
1469	12018
1470	12020
1473	12023
1476	12025
1478	12028
1479	12030
1477	12034
1477	12036
1478	12038
1479	12041
1479	12043
1478	12046
1478	12048
1478	12051
1478	12053
1478	12056
1478	12058
1478	12061
1478	12063
1476	12065
1475	12068
1475	12070
1475	12073
1475	12076
1474	12079
1474	12081
1475	12084
1475	12086
1475	12089
1476	12091
1475	12093
1475	12096
1475	12098
1475	12101
1474	12103
1474	12106
1474	12108
1475	12111
1475	12113
1474	12116
1474	12119
1475	12122
1477	12124
1478	12126
1477	12129
1476	12131
1476	12134
1476	12136
1475	12139
1474	12141
1474	12144
1474	12146
1475	12149
1476	12151
1477	12153
1478	12156
1478	12158
1477	12162
1475	12164
1473	12167
1472	12169
1472	12172
1473	12174
1474	12177
1474	12179
1475	12181
1475	12184
1474	12186
1474	12189
1475	12191
1474	12194
1473	12196
1473	12199
1474	12201
1476	12205
1477	12207
1477	12210
1476	12212
1476	12214
1474	12217
1474	12219
1474	12222
1475	12224
1475	12227
1475	12229
1474	12232
1473	12234
1473	12237
1474	12239
1473	12241
1472	12244
1473	12247
1475	12250
1476	12252
1475	12255
1475	12257
1476	12260
1476	12262
1477	12265
1477	12267
1478	12269
1478	12272
1476	12274
1474	12277
1473	12279
1473	12282
1473	12284
1473	12288
1475	12290
1476	12293
1476	12295
1476	12297
1475	12300
1477	12302
1478	12305
1479	12307
1479	12310
1479	12312
1478	12315
1476	12317
1474	12320
1473	12322
1475	12325
1476	12327
1478	12329
1478	12333
1478	12335
1478	12338
1478	12340
1478	12343
1476	12345
1474	12348
1474	12350
1476	12353
1478	12355
1479	12357
1479	12360
1478	12362
1477	12365
1477	12367
1479	12370
1480	12372
1481	12376
1481	12378
1480	12381
1479	12383
1479	12385
1479	12388
1479	12390
1479	12393
1481	12395
1483	12398
1483	12400
1483	12403
1482	12405
1481	12408
1480	12410
1479	12413
1479	12416
1479	12418
1479	12421
1479	12423
1477	12426
1476	12428
1475	12431
1475	12433
1477	12436
1477	12438
1477	12441
1476	12443
1474	12445
1473	12448
1475	12450
1479	12453
1481	12455
1481	12459
1480	12461
1479	12464
1478	12466
1478	12469
1478	12471
1479	12473
1479	12476
1480	12478
1480	12481
1481	12483
1481	12486
1481	12488
1480	12491
1481	12493
1481	12496
1481	12498
1477	12502
1476	12504
1475	12506
1475	12509
1474	12511
1474	12514
1475	12516
1472	12519
1470	12521
1472	12524
1475	12526
1477	12529
1475	12531
1473	12533
1473	12536
1475	12538
1477	12541
1479	12544
1480	12547
1481	12549
1482	12552
1483	12554
1483	12557
1483	12559
1482	12561
1482	12564
1481	12566
1481	12569
1481	12571
1483	12574
1483	12576
1485	12579
1486	12581
1485	12584
1483	12587
1482	12590
1480	12592
1480	12594
1479	12597
1479	12599
1478	12602
1477	12604
1476	12607
1477	12609
1478	12612
1478	12614
1476	12617
1475	12619
1475	12621
1474	12624
1475	12626
1478	12630
1481	12632
1481	12635
1481	12637
1480	12640
1478	12642
1479	12645
1480	12647
1481	12649
1481	12652
1482	12654
1483	12657
1484	12659
1484	12662
1483	12664
1482	12667
1481	12669
1480	12673
1480	12675
1479	12678
1478	12680
1477	12682
1476	12685
1477	12687
1478	12690
1479	12692
1478	12695
1477	12697
1478	12700
1481	12702
1483	12705
1483	12707
1481	12709
1479	12712
1477	12715
1476	12718
1475	12720
1474	12723
1475	12725
1477	12728
1480	12730
1482	12733
1482	12735
1480	12737
1477	12740
1477	12742
1478	12745
1479	12747
1479	12750
1480	12752
1480	12755
1482	12758
1483	12761
1483	12763
1481	12765
1479	12768
1477	12770
1478	12773
1480	12775
1481	12778
1481	12780
1480	12783
1481	12785
1481	12788
1482	12790
1482	12793
1482	12795
1482	12797
1483	12801
1482	12803
1482	12806
1481	12808
1479	12811
1478	12813
1477	12816
1477	12818
1479	12821
1483	12823
1485	12825
1485	12828
1485	12830
1484	12833
1484	12835
1484	12838
1484	12840
1483	12844
1482	12846
1481	12849
1481	12851
1480	12853
1479	12856
1480	12858
1482	12861
1482	12863
1482	12866
1482	12868
1483	12871
1484	12873
1485	12876
1484	12878
1484	12880
1483	12883
1482	12886
1481	12889
1482	12891
1483	12894
1484	12896
1484	12899
1485	12901
1484	12904
1484	12906
1484	12908
1486	12911
1485	12913
1486	12916
1485	12918
1483	12921
1482	12923
1481	12926
1480	12929
1479	12932
1478	12934
1477	12937
1478	12939
1479	12941
1479	12944
1480	12946
1480	12949
1482	12951
1484	12954
1485	12956
1485	12959
1483	12961
1482	12964
1480	12966
1478	12968
1478	12972
1479	12974
1482	12977
1484	12979
1483	12982
1482	12984
1481	12987
1481	12989
1481	12992
1481	12994
1483	12996
1483	12999
1481	13001
1480	13004
1479	13006
1477	13009
1475	13011
1474	13015
1475	13017
1476	13020
1478	13022
1479	13025
1478	13027
1478	13029
1479	13032
1479	13034
1480	13037
1482	13039
1481	13042
1480	13044
1481	13047
1481	13049
1481	13052
1482	13054
1479	13057
1477	13060
1477	13062
1480	13065
1483	13067
1483	13070
1482	13072
1482	13075
1482	13077
1484	13080
1484	13082
1483	13084
1483	13087
1484	13089
1483	13092
1483	13094
1483	13097
1483	13100
1483	13103
1483	13105
1484	13108
1484	13110
1484	13112
1484	13115
1484	13117
1484	13120
1484	13122
1484	13125
1484	13127
1485	13130
1486	13132
1484	13135
1482	13137
1481	13140
1481	13143
1482	13145
1482	13148
1481	13150
1480	13153
1481	13155
1482	13158
1482	13160
1483	13163
1483	13165
1483	13168
1482	13170
1482	13172
1483	13175
1484	13177
1484	13180
1484	13182
1484	13186
1485	13188
1485	13191
1485	13193
1484	13196
1482	13198
1481	13200
1481	13203
1481	13205
1480	13208
1480	13210
1480	13213
1481	13215
1481	13218
1481	13220
1481	13223
1479	13225
1479	13229
1479	13231
1478	13233
1475	13236
1474	13238
1476	13241
1480	13243
1481	13246
1481	13248
1480	13251
1480	13253
1481	13256
1482	13258
1481	13260
1479	13263
1477	13265
1477	13268
1478	13271
1478	13274
1479	13276
1480	13279
1482	13281
1483	13284
1483	13286
1483	13288
1482	13291
1481	13293
1481	13296
1481	13298
1481	13301
1483	13303
1484	13306
1484	13308
1485	13312
1485	13314
1485	13316
1486	13319
1487	13321
1486	13324
1485	13326
1484	13329
1483	13331
1483	13334
1483	13336
1483	13339
1483	13341
1482	13344
1480	13346
1479	13348
1481	13351
1483	13353
1485	13357
1486	13359
1488	13362
1487	13364
1487	13367
1487	13369
1487	13372
1487	13374
1485	13376
1484	13379
1483	13381
1482	13384
1481	13386
1482	13389
1483	13391
1484	13394
1484	13396
1484	13400
1485	13402
1485	13404
1484	13407
1483	13409
1481	13412
1481	13414
1480	13417
1479	13419
1478	13422
1478	13424
1478	13427
1478	13429
1479	13432
1479	13434
1479	13436
1479	13440
1479	13442
1480	13445
1479	13447
1479	13450
1478	13452
1478	13455
1480	13457
1480	13460
1479	13462
1479	13464
1481	13467
1482	13469
1482	13472
1483	13474
1485	13477
1487	13479
1487	13483
1487	13485
1485	13488
1483	13490
1481	13492
1480	13495
1481	13497
1482	13500
1482	13502
1482	13505
1481	13507
1480	13510
1479	13512
1479	13515
1479	13517
1479	13519
1479	13522
1479	13524
1479	13528
1479	13530
1478	13533
1478	13535
1476	13538
1475	13540
1476	13543
1477	13545
1479	13548
1481	13550
1483	13552
1486	13555
1487	13557
1487	13560
1482	13562
1477	13565
1476	13568
1478	13571
1480	13573
1481	13576
1480	13578
1481	13580
1482	13583
1484	13585
1485	13588
1486	13590
1485	13593
1485	13595
1485	13598
1485	13600
1484	13603
1484	13605
1485	13607
1486	13611
1486	13613
1486	13616
1485	13618
1484	13621
1483	13623
1482	13626
1480	13628
1479	13631
1481	13633
1487	13636
1491	13638
1491	13640
1488	13643
1486	13645
1485	13648
1484	13650
1482	13654
1481	13656
1480	13659
1481	13661
1482	13664
1485	13666
1487	13668
1489	13671
1488	13673
1486	13676
1485	13678
1483	13681
1482	13683
1480	13686
1479	13688
1479	13691
1478	13693
1478	13696
1480	13699
1482	13701
1482	13704
1483	13706
1482	13709
1481	13711
1480	13714
1479	13716
1479	13719
1479	13721
1479	13724
1479	13726
1481	13728
1485	13731
1488	13733
1489	13736
1487	13739
1485	13742
1483	13744
1483	13747
1484	13749
1484	13752
1483	13754
1483	13756
1483	13759
1482	13761
1480	13764
1479	13766
1478	13769
1479	13771
1480	13774
1479	13776
1479	13779
1479	13782
1477	13784
1477	13787
1479	13789
1481	13792
1481	13794
1481	13797
1481	13799
1483	13802
1482	13804
1482	13807
1482	13809
1483	13812
1484	13814
1484	13816
1483	13819
1482	13821
1484	13825
1487	13827
1490	13830
1491	13832
1489	13835
1485	13837
1485	13840
1488	13842
1490	13844
1489	13847
1488	13849
1487	13852
1486	13854
1486	13857
1485	13859
1485	13862
1486	13864
1486	13868
1483	13870
1480	13872
1481	13875
1483	13877
1485	13880
1488	13882
1489	13885
1489	13887
1489	13890
1486	13892
1483	13895
1481	13897
1482	13899
1483	13902
1483	13904
1483	13907
1483	13910
1483	13913
1483	13915
1483	13918
1482	13920
1481	13923
1479	13925
1479	13928
1481	13930
1483	13932
1483	13935
1482	13937
1483	13940
1484	13942
1487	13945
1491	13947
1492	13950
1490	13953
1489	13956
1488	13958
1487	13960
1486	13963
1483	13965
1482	13968
1482	13970
1486	13973
1488	13975
1488	13978
1487	13980
1486	13983
1485	13985
1483	13987
1479	13990
1477	13992
1477	13996
1482	13998
1484	14001
1486	14003
1485	14006
1485	14008
1485	14011
1485	14013
1483	14016
1482	14018
1481	14020
1481	14023
1481	14025
1482	14028
1482	14030
1481	14033
1481	14035
1481	14039
1483	14041
1484	14044
1485	14046
1486	14048
1485	14051
1486	14053
1487	14056
1488	14058
1488	14061
1486	14063
1485	14066
1485	14068
1485	14071
1487	14073
1489	14075
1489	14078
1487	14081
1483	14084
1481	14086
1482	14089
1483	14091
1485	14094
1485	14096
1485	14099
1484	14101
1484	14104
1485	14106
1485	14108
1483	14111
1481	14113
1481	14116
1483	14118
1485	14121
1486	14124
1486	14127
1485	14129
1486	14132
1486	14134
1486	14136
1486	14139
1488	14141
1488	14144
1489	14146
1489	14149
1486	14151
1485	14154
1484	14156
1485	14159
1485	14161
1484	14163
1483	14167
1483	14169
1487	14172
1490	14174
1490	14177
1488	14179
1486	14182
1484	14184
1483	14187
1481	14189
1480	14191
1482	14194
1484	14196
1485	14199
1485	14201
1485	14204
1486	14206
1488	14210
1489	14212
1488	14215
1487	14217
1486	14220
1485	14222
1484	14224
1483	14227
1483	14229
1482	14232
1482	14234
1483	14237
1483	14239
1484	14242
1484	14244
1484	14247
1483	14249
1483	14252
1483	14255
1483	14257
1483	14260
1484	14262
1483	14265
1483	14267
1483	14270
1479	14272
1477	14275
1479	14277
1484	14279
1487	14282
1488	14284
1487	14287
1487	14289
1486	14292
1485	14295
1484	14298
1483	14300
1482	14303
1482	14305
1482	14308
1483	14310
1483	14312
1483	14315
1482	14317
1481	14320
1482	14322
1483	14325
1483	14327
1483	14330
1480	14332
1480	14336
1482	14338
1487	14340
1488	14343
1486	14345
1483	14348
1481	14350
1480	14353
1480	14355
1480	14358
1480	14360
1479	14363
1481	14365
1483	14367
1484	14370
1484	14372
1481	14375
1481	14377
1481	14381
1481	14383
1479	14386
1478	14388
1479	14391
1481	14393
1483	14396
1484	14398
1484	14400
1484	14403
1484	14405
1485	14408
1485	14410
1486	14413
1485	14415
1484	14418
1484	14420
1484	14424
1486	14426
1488	14428
1488	14431
1488	14433
1487	14436
1488	14438
1488	14441
1486	14443
1486	14446
1487	14448
1488	14451
1489	14453
1488	14455
1488	14458
1488	14460
1488	14464
1487	14466
1483	14469
1480	14471
1481	14474
1484	14476
1485	14479
1485	14481
1486	14483
1485	14486
1484	14488
1483	14491
1485	14493
1487	14496
1486	14498
1486	14501
1486	14503
1486	14507
1486	14509
1486	14512
1487	14514
1487	14516
1486	14519
1486	14521
1487	14524
1487	14526
1486	14529
1485	14531
1485	14534
1485	14536
1486	14539
1486	14541
1487	14543
1487	14546
1488	14548
1489	14552
1489	14554
1489	14557
1487	14559
1486	14562
1485	14564
1482	14567
1482	14569
1482	14571
1483	14574
1483	14576
1481	14579
1479	14581
1479	14584
1481	14586
1482	14589
1482	14592
1482	14595
1483	14597
1484	14600
1486	14602
1486	14604
1487	14607
1486	14609
1486	14612
1486	14614
1488	14617
1489	14619
1489	14622
1488	14624
1486	14627
1485	14629
1484	14631
1483	14635
1484	14637
1485	14640
1486	14642
1485	14645
1484	14647
1484	14650
1485	14652
1485	14655
1484	14657
1484	14659
1484	14662
1484	14664
1484	14667
1484	14669
1483	14672
1484	14674
1484	14678
1485	14680
1486	14683
1487	14685
1487	14688
1487	14690
1485	14692
1484	14695
1485	14697
1486	14700
1488	14702
1488	14705
1489	14707
1488	14710
1488	14712
1488	14715
1487	14717
1486	14720
1485	14723
1485	14725
1485	14728
1486	14730
1486	14733
1487	14735
1487	14738
1487	14740
1487	14743
1488	14745
1489	14747
1491	14750
1491	14752
1490	14755
1490	14757
1489	14760
1489	14763
1488	14766
1488	14768
1488	14771
1489	14773
1490	14776
1490	14778
1489	14780
1488	14783
1489	14785
1489	14788
1490	14790
1490	14793
1491	14795
1492	14798
1492	14800
1492	14803
1491	14806
1491	14808
1490	14811
1491	14813
1489	14816
1489	14818
1488	14821
1487	14823
1487	14826
1489	14828
1490	14831
1490	14833
1489	14835
1489	14838
1489	14840
1488	14843
1489	14845
1489	14849
1489	14851
1489	14854
1489	14856
1490	14859
1490	14861
1489	14863
1489	14866
1491	14868
1493	14871
1493	14873
1490	14876
1487	14878
1483	14881
1481	14883
1482	14886
1484	14888
1486	14892
1487	14894
1488	14896
1487	14899
1487	14901
1487	14904
1487	14906
1486	14909
1488	14911
1488	14914
1489	14916
1489	14919
1489	14921
1488	14923
1488	14926
1488	14928
1488	14931
1488	14934
1488	14937
1489	14939
1490	14942
1490	14944
1490	14947
1490	14949
1491	14951
1491	14954
1490	14956
1490	14959
1488	14961
1486	14964
1486	14966
1486	14969
1485	14971
1485	14974
1487	14977
1489	14980
1490	14982
1490	14984
1490	14987
1490	14989
1491	14992
1491	14994
1491	14997
1490	14999
1491	15002
1491	15004
1492	15007
1492	15009
1490	15011
1488	15014
1487	15016
1487	15020
1487	15022
1488	15025
1488	15027
1489	15030
1489	15032
1489	15035
1489	15037
1488	15039
1488	15042
1488	15044
1489	15047
1489	15049
1489	15052
1489	15054
1489	15057
1489	15059
1489	15063
1487	15065
1487	15068
1488	15070
1488	15072
1489	15075
1488	15077
1486	15080
1486	15082
1488	15085
1490	15087
1491	15090
1491	15092
1491	15095
1492	15097
1490	15099
1488	15102
1486	15105
1484	15108
1483	15110
1484	15113
1486	15115
1486	15118
1487	15120
1487	15123
1489	15125
1490	15127
1490	15130
1489	15132
1489	15135
1488	15137
1489	15140
1488	15142
1488	15145
1486	15148
1484	15151
1485	15153
1488	15155
1489	15158
1490	15160
1489	15163
1488	15165
1487	15168
1487	15170
1488	15173
1488	15175
1487	15178
1486	15180
1486	15183
1487	15185
1488	15187
1490	15191
1491	15193
1491	15196
1491	15198
1490	15201
1489	15203
1488	15206
1487	15208
1487	15211
1488	15213
1487	15215
1487	15218
1488	15220
1488	15223
1487	15225
1486	15228
1485	15230
1484	15234
1484	15236
1485	15239
1486	15241
1487	15243
1486	15246
1485	15248
1485	15251
1487	15253
1488	15256
1489	15258
1488	15261
1488	15263
1487	15266
1486	15268
1485	15271
1485	15273
1485	15276
1485	15279
1483	15281
1483	15284
1484	15286
1485	15289
1486	15291
1485	15294
1486	15296
1488	15299
1490	15301
1491	15303
1490	15306
1490	15308
1490	15311
1490	15313
1490	15316
1490	15319
1490	15322
1489	15324
1489	15327
1490	15329
1490	15331
1490	15334
1490	15336
1489	15339
1489	15341
1491	15344
1492	15346
1492	15349
1491	15351
1489	15354
1487	15356
1486	15360
1485	15362
1484	15364
1483	15367
1481	15369
1480	15372
1481	15374
1485	15377
1487	15379
1487	15382
1487	15384
1485	15387
1485	15389
1486	15391
1488	15394
1488	15396
1487	15399
1487	15401
1487	15405
1487	15407
1486	15410
1485	15412
1485	15415
1484	15417
1484	15419
1484	15422
1485	15424
1485	15427
1485	15429
1486	15432
1487	15434
1486	15437
1486	15439
1485	15442
1485	15444
1485	15448
1485	15450
1484	15452
1482	15455
1482	15457
1483	15460
1483	15462
1484	15465
1484	15467
1483	15470
1484	15472
1488	15475
1490	15477
1490	15479
1490	15482
1490	15484
1489	15488
1489	15490
1489	15493
1491	15495
1492	15498
1493	15500
1493	15503
1493	15505
1491	15507
1489	15510
1487	15512
1487	15515
1486	15517
1486	15520
1485	15522
1484	15525
1484	15527
1484	15531
1483	15533
1482	15535
1480	15538
1478	15540
1478	15543
1480	15545
1481	15548
1483	15550
1483	15553
1482	15555
1481	15558
1480	15560
1481	15563
1483	15565
1486	15567
1486	15570
1488	15572
1490	15576
1492	15578
1493	15581
1493	15583
1492	15586
1489	15588
1487	15591
1486	15593
1486	15595
1485	15598
1485	15600
1484	15603
1484	15605
1485	15608
1485	15610
1484	15613
1484	15616
1484	15619
1484	15621
1483	15623
1483	15626
1483	15628
1483	15631
1484	15633
1486	15636
1487	15638
1486	15641
1484	15643
1483	15646
1485	15648
1486	15651
1487	15653
1488	15655
1489	15659
1490	15661
1491	15664
1492	15666
1492	15669
1489	15671
1487	15674
1487	15676
1488	15679
1487	15681
1486	15683
1487	15686
1487	15688
1486	15691
1486	15693
1486	15696
1486	15698
1486	15702
1485	15704
1484	15707
1483	15709
1483	15711
1483	15714
1483	15716
1481	15719
1481	15721
1483	15724
1486	15726
1488	15729
1488	15731
1486	15734
1486	15736
1484	15739
1483	15741
1484	15744
1486	15747
1488	15749
1488	15752
1488	15754
1486	15757
1485	15759
1484	15762
1484	15764
1485	15767
1485	15769
1486	15771
1486	15774
1486	15776
1485	15779
1485	15781
1486	15784
1487	15787
1486	15790
1485	15792
1484	15795
1486	15797
1488	15799
1489	15802
1489	15804
1488	15807
1488	15809
1488	15812
1489	15814
1489	15817
1490	15819
1489	15822
1490	15824
1490	15826
1490	15830
1490	15832
1490	15835
1490	15837
1489	15840
1488	15842
1488	15845
1486	15847
1485	15850
1486	15852
1485	15855
