1483	2
1486	5
1486	7
1486	9
1485	11
1482	14
1481	16
1480	18
1481	21
1483	23
1484	25
1485	27
1486	30
1486	32
1485	34
1485	37
1485	39
1485	41
1485	45
1485	47
1486	49
1485	51
1485	54
1485	56
1484	58
1482	61
1479	63
1479	65
1481	68
1483	70
1483	72
1482	75
1482	77
1483	79
1485	81
1487	84
1488	87
1488	89
1488	92
1488	94
1487	96
1487	99
1487	101
1488	103
1488	106
1488	108
1488	110
1487	113
1486	115
1486	117
1486	120
1485	122
1485	124
1485	128
1486	130
1486	132
1487	135
1487	137
1486	140
1487	142
1487	144
1487	147
1486	149
1484	151
1483	154
1484	156
1486	158
1487	161
1487	163
1486	165
1487	168
1488	171
1489	173
1489	176
1489	178
1489	181
1489	183
1488	185
1487	188
1486	190
1486	192
1486	195
1488	197
1489	199
1489	202
1488	204
1487	206
1487	209
1486	211
1485	214
1485	217
1485	219
1485	222
1483	224
1482	226
1481	229
1482	231
1483	233
1485	236
1486	238
1486	240
1486	243
1486	245
1487	247
1487	250
1488	252
1488	256
1487	258
1486	260
1484	263
1482	265
1483	267
1487	270
1488	272
1489	274
1489	277
1489	279
1489	281
1488	284
1487	286
1487	288
1487	291
1487	293
1487	296
1486	299
1486	301
1486	304
1487	306
1488	308
1488	311
1487	313
1487	315
1487	318
1488	320
1488	322
1490	325
1490	327
1488	329
1488	332
1487	334
1487	337
1486	339
1486	342
1486	345
1486	347
1486	349
1485	352
1484	354
1484	356
1486	359
1488	361
1487	363
1488	366
1487	368
1487	370
1487	373
1486	375
1485	378
1485	380
1485	382
1485	386
1485	388
1485	390
1486	393
1486	395
1488	397
1489	400
1489	402
1488	404
1488	407
1488	409
1487	412
1488	414
1487	416
1487	419
1486	421
1486	423
1486	427
1486	429
1486	431
1486	434
1485	436
1484	438
1485	441
1487	443
1488	445
1487	448
1487	450
1488	453
1489	455
1490	457
1490	460
1489	462
1489	464
1489	467
1489	470
1489	472
1487	475
1486	477
1485	479
1485	482
1486	484
1486	486
1487	489
1487	491
1488	494
1488	496
1488	498
1488	501
1487	503
1487	505
1487	508
1488	510
1488	513
1488	516
1487	518
1487	520
1487	523
1486	525
1487	528
1487	530
1486	532
1486	535
1488	537
1490	539
1490	542
1489	544
1487	546
1486	549
1486	551
1487	553
1488	557
1488	559
1488	561
1489	564
1489	566
1489	569
1488	571
1488	573
1489	576
1490	578
1491	580
1490	583
1490	585
1490	587
1491	590
1492	592
1492	594
1492	598
1492	600
1492	603
1491	605
1491	607
1490	610
1491	612
1491	614
1493	617
1494	619
1493	621
1491	624
1489	626
1488	628
1488	631
1489	633
1490	635
1490	638
1489	641
1489	644
1489	646
1490	648
1490	651
1489	653
1489	655
1488	658
1488	660
1488	662
1488	665
1488	667
1488	669
1489	672
1488	674
1489	676
1489	679
1489	681
1489	685
1488	687
1488	689
1488	692
1488	694
1487	696
1486	699
1486	701
1485	703
1484	706
1486	708
1488	710
1489	713
1491	715
1490	718
1489	720
1487	722
1487	726
1488	728
1488	730
1488	733
1488	735
1488	737
1489	740
1489	742
1490	744
1490	747
1490	749
1489	751
1487	754
1487	756
1488	759
1489	761
1490	763
1489	766
1488	769
1488	771
1488	774
1488	776
1488	778
1487	781
1486	783
1486	785
1486	788
1486	790
1486	792
1485	795
1484	797
1484	800
1486	802
1487	804
1488	807
1488	809
1489	812
1489	815
1488	817
1488	819
1488	822
1488	824
1488	826
1489	829
1488	831
1487	834
1486	836
1486	838
1486	841
1486	843
1487	845
1486	848
1486	850
1486	852
1486	856
1485	858
1484	860
1484	863
1484	865
1486	867
1487	870
1487	872
1487	875
1487	877
1487	879
1488	882
1488	884
1489	886
1489	889
1488	891
1488	893
1487	897
1486	899
1485	901
1484	904
1483	906
1483	908
1483	911
1483	913
1482	916
1482	918
1485	920
1487	923
1488	925
1489	927
1488	930
1487	932
1485	934
1485	937
1485	940
1486	942
1487	945
1489	947
1489	950
1488	952
1487	954
1486	957
1487	959
1487	961
1486	964
1485	966
1485	968
1486	971
1486	973
1487	975
1487	978
1488	980
1488	983
1487	986
1486	988
1484	991
1484	993
1484	995
1485	998
1486	1000
1487	1002
1488	1005
1489	1007
1489	1010
1488	1012
1485	1014
1485	1017
1488	1019
1490	1022
1491	1025
1490	1027
1489	1030
1489	1032
1490	1035
1490	1037
1489	1039
1487	1042
1486	1044
1487	1047
1487	1049
1486	1051
1485	1054
1485	1056
1486	1059
1487	1061
1488	1063
1488	1067
1488	1069
1488	1072
1488	1074
1487	1076
1486	1079
1486	1081
1485	1084
1485	1086
1485	1088
1485	1091
1485	1093
1485	1096
1485	1098
1486	1101
1487	1103
1487	1105
1487	1108
1487	1111
1487	1114
1490	1116
1492	1118
1492	1121
1491	1123
1490	1126
1488	1128
1488	1130
1487	1133
1486	1135
1485	1138
1484	1140
1484	1142
1484	1145
1484	1147
1485	1150
1486	1153
1486	1155
1486	1158
1487	1160
1487	1163
1488	1165
1490	1167
1490	1170
1488	1172
1486	1175
1486	1177
1487	1179
1487	1182
1487	1184
1487	1187
1487	1189
1487	1192
1487	1195
1488	1197
1488	1200
1488	1202
1488	1205
1488	1207
1488	1209
1488	1212
1488	1214
1486	1217
1485	1219
1485	1221
1486	1224
1486	1226
1487	1229
1487	1231
1487	1233
1487	1236
1486	1239
1485	1242
1485	1244
1485	1246
1486	1249
1486	1251
1487	1254
1488	1256
1488	1258
1488	1261
1487	1263
1487	1266
1487	1268
1487	1270
1487	1273
1485	1275
1482	1278
1481	1281
1481	1283
1483	1286
1485	1288
1487	1291
1488	1293
1488	1296
1488	1298
1488	1300
1489	1303
1489	1305
1489	1308
1489	1310
1488	1312
1487	1315
1487	1317
1488	1320
1488	1323
1488	1325
1491	1328
1492	1330
1493	1333
1491	1335
1489	1337
1486	1340
1485	1342
1485	1345
1484	1347
1482	1349
1480	1352
1481	1354
1483	1357
1485	1359
1486	1361
1485	1364
1484	1367
1482	1370
1479	1372
1480	1374
1484	1377
1487	1379
1488	1382
1487	1384
1487	1386
1487	1389
1488	1391
1489	1394
1489	1396
1488	1399
1487	1401
1485	1403
1482	1406
1481	1409
1481	1412
1481	1414
1480	1416
1480	1419
1481	1421
1481	1424
1480	1426
1481	1428
1482	1431
1482	1433
1481	1436
1481	1438
1481	1440
1484	1443
1485	1445
1485	1448
1486	1451
1488	1453
1490	1456
1491	1458
1490	1461
1488	1463
1486	1465
1482	1468
1481	1470
1480	1473
1482	1475
1485	1477
1486	1480
1487	1482
1485	1485
1483	1487
1482	1489
1483	1492
1484	1495
1486	1498
1488	1500
1488	1503
1488	1505
1488	1507
1488	1510
1488	1512
1487	1515
1486	1517
1485	1519
1484	1522
1485	1524
1486	1527
1487	1529
1489	1531
1490	1534
1490	1537
1490	1540
1488	1542
1487	1544
1485	1547
1483	1549
1480	1552
1479	1554
1481	1556
1484	1559
1486	1561
1489	1564
1490	1566
1492	1568
1493	1571
1493	1573
1493	1576
1492	1579
1490	1581
1489	1584
1489	1586
1488	1589
1486	1591
1485	1594
1485	1596
1485	1598
1487	1601
1488	1603
1489	1606
1490	1608
1490	1610
1491	1613
1492	1615
1492	1618
1491	1620
1489	1623
1490	1626
1490	1628
1487	1631
1486	1633
1487	1635
1490	1638
1491	1640
1491	1643
1491	1645
1492	1647
1492	1650
1492	1652
1493	1655
1494	1657
1495	1659
1494	1662
1493	1665
1492	1668
1491	1670
1488	1672
1485	1675
1484	1677
1485	1680
1485	1682
1486	1684
1487	1687
1489	1689
1491	1692
1492	1694
1492	1697
1492	1699
1492	1701
1493	1704
1492	1707
1492	1710
1491	1712
1490	1714
1488	1717
1487	1719
1487	1722
1488	1724
1489	1726
1489	1729
1490	1731
1490	1734
1489	1736
1488	1738
1486	1741
1485	1743
1486	1746
1488	1748
1490	1751
1491	1754
1490	1756
1488	1759
1487	1761
1484	1763
1484	1766
1484	1768
1485	1771
1483	1773
1483	1775
1482	1778
1482	1780
1483	1783
1483	1785
1483	1787
1483	1790
1482	1793
1481	1796
1481	1798
1481	1801
1482	1803
1482	1805
1482	1808
1482	1810
1482	1813
1482	1815
1482	1817
1482	1820
1481	1822
1481	1825
1481	1827
1479	1829
1478	1832
1480	1835
1482	1838
1484	1840
1485	1842
1485	1845
1484	1847
1485	1850
1487	1852
1488	1854
1487	1857
1485	1859
1485	1862
1486	1864
1487	1866
1486	1869
1486	1871
1487	1874
1486	1876
1487	1879
1487	1882
1486	1884
1486	1887
1485	1889
1485	1891
1485	1894
1485	1896
1486	1899
1487	1901
1485	1904
1484	1906
1484	1908
1484	1911
1485	1913
1483	1916
1481	1918
1479	1921
1479	1924
1481	1926
1482	1929
1483	1931
1484	1933
1485	1936
1485	1938
1486	1941
1486	1943
1487	1945
1487	1948
1487	1950
1488	1953
1488	1955
1486	1957
1485	1960
1485	1963
1485	1966
1484	1968
1482	1970
1482	1973
1484	1975
1484	1978
1483	1980
1483	1982
1484	1985
1484	1987
1484	1990
1483	1992
1481	1994
1481	1997
1483	1999
1484	2002
1486	2004
1487	2008
1487	2010
1487	2012
1486	2015
1486	2017
1490	2020
1491	2022
1492	2024
1490	2027
1488	2029
1486	2032
1487	2034
1486	2036
1485	2039
1485	2041
1486	2044
1489	2046
1490	2049
1491	2052
1491	2054
1491	2057
1490	2059
1489	2061
1488	2064
1488	2066
1488	2069
1487	2071
1487	2073
1485	2076
1482	2078
1482	2081
1484	2083
1486	2085
1488	2088
1489	2091
1490	2094
1490	2096
1490	2098
1491	2101
1493	2103
1492	2106
1491	2108
1490	2110
1489	2113
1488	2115
1487	2118
1488	2120
1488	2123
1489	2125
1490	2127
1491	2130
1491	2132
1490	2136
1489	2138
1488	2140
1488	2143
1488	2145
1488	2148
1488	2150
1489	2152
1489	2155
1488	2157
1488	2160
1488	2162
1490	2164
1490	2167
1488	2169
1486	2172
1484	2174
1486	2177
1488	2180
1489	2182
1490	2185
1490	2187
1487	2189
1487	2192
1488	2194
1490	2197
1491	2199
1492	2202
1492	2204
1491	2206
1490	2209
1489	2211
1491	2214
1493	2216
1494	2219
1494	2222
1495	2224
1494	2227
1494	2229
1494	2231
1494	2234
1495	2236
1495	2239
1494	2241
1494	2243
1491	2246
1488	2248
1487	2251
1487	2253
1486	2255
1482	2258
1482	2260
1484	2264
1486	2266
1490	2268
1492	2271
1492	2273
1490	2276
1489	2278
1488	2280
1489	2283
1491	2285
1491	2288
1492	2290
1492	2293
1492	2295
1493	2297
1492	2300
1492	2302
1495	2306
1492	2308
1488	2310
1487	2313
1487	2315
1489	2318
1491	2320
1492	2322
1492	2325
1491	2327
1490	2330
1490	2332
1490	2334
1491	2337
1491	2339
1490	2342
1490	2344
1490	2347
1490	2350
1490	2352
1489	2355
1490	2357
1489	2359
1489	2362
1489	2364
1489	2367
1487	2369
1487	2371
1487	2374
1486	2376
1486	2379
1486	2381
1488	2384
1489	2386
1489	2388
1489	2392
1486	2394
1485	2397
1485	2399
1486	2401
1488	2404
1488	2406
1487	2409
1487	2411
1486	2413
1485	2416
1486	2418
1486	2421
1487	2423
1489	2425
1491	2428
1488	2430
1484	2434
1482	2436
1483	2438
1483	2441
1484	2443
1486	2446
1486	2448
1488	2450
1489	2453
1490	2455
1490	2458
1490	2460
1490	2463
1490	2465
1490	2467
1488	2470
1487	2472
1488	2476
1492	2478
1496	2480
1498	2483
1500	2485
1497	2488
1491	2490
1487	2492
1485	2495
1488	2497
1488	2500
1488	2502
1487	2504
1487	2507
1488	2509
1491	2512
1492	2514
1492	2516
1490	2520
1488	2522
1489	2525
1492	2527
1492	2529
1491	2532
1489	2534
1489	2537
1491	2539
1494	2542
1495	2544
1494	2546
1494	2549
1495	2551
1494	2554
1491	2556
1488	2558
1485	2562
1484	2564
1484	2567
1483	2569
1484	2571
1485	2574
1485	2576
1486	2579
1488	2581
1488	2583
1485	2586
1482	2588
1480	2591
1481	2593
1483	2595
1485	2598
1485	2600
1486	2604
1486	2606
1485	2608
1485	2611
1487	2613
1490	2616
1493	2618
1498	2620
1499	2623
1496	2625
1491	2628
1488	2630
1485	2632
1484	2635
1485	2637
1485	2640
1485	2642
1485	2646
1486	2648
1485	2650
1484	2653
1484	2655
1485	2658
1485	2660
1485	2662
1483	2665
1483	2667
1482	2670
1482	2672
1482	2674
1482	2677
1484	2679
1486	2682
1488	2684
1489	2686
1488	2690
1486	2692
1484	2695
1483	2697
1485	2699
1487	2702
1486	2704
1485	2707
1486	2709
1486	2711
1486	2714
1486	2716
1485	2719
1484	2721
1484	2723
1486	2726
1487	2728
1486	2732
1486	2734
1487	2736
1486	2739
1484	2741
1484	2744
1484	2746
1485	2749
1487	2751
1488	2753
1488	2756
1488	2758
1489	2761
1491	2763
1490	2765
1488	2768
1485	2770
1482	2774
1480	2776
1480	2778
1481	2781
1482	2783
1482	2786
1483	2788
1484	2790
1486	2793
1487	2795
1487	2798
1486	2800
1486	2802
1486	2805
1483	2807
1482	2810
1482	2812
1485	2814
1487	2818
1487	2820
1486	2823
1484	2825
1484	2827
1485	2830
1486	2832
1487	2835
1486	2837
1487	2839
1488	2842
1491	2844
1492	2847
1491	2849
1484	2852
1478	2854
1473	2856
1478	2860
1488	2862
1492	2865
1493	2867
1492	2869
1493	2872
1492	2874
1492	2877
1490	2879
1489	2881
1490	2884
1491	2886
1493	2889
1493	2891
1492	2893
1491	2896
1491	2898
1490	2902
1489	2904
1486	2906
1484	2909
1483	2911
1486	2914
1486	2916
1485	2918
1485	2921
1485	2923
1487	2926
1487	2928
1487	2930
1488	2933
1488	2935
1486	2938
1486	2940
1488	2944
1490	2946
1492	2948
1493	2951
1494	2953
1493	2956
1489	2958
1487	2960
1488	2963
1491	2965
1491	2968
1491	2970
1490	2972
1487	2975
1485	2977
1487	2980
1488	2982
1489	2984
1488	2988
1488	2990
1487	2993
1486	2995
1486	2997
1486	3000
1486	3002
1488	3005
1487	3007
1487	3009
1485	3012
1484	3014
1484	3017
1486	3019
1486	3022
1485	3024
1484	3026
1483	3030
1484	3032
1486	3035
1487	3037
1488	3039
1489	3042
1490	3044
1493	3047
1494	3049
1494	3051
1492	3054
1490	3056
1489	3059
1488	3061
1488	3063
1488	3066
1489	3068
1489	3072
1488	3074
1489	3076
1489	3079
1489	3081
1490	3084
1489	3086
1487	3088
1485	3091
1484	3093
1485	3096
1486	3098
1488	3100
1488	3103
1489	3105
1489	3108
1487	3110
1488	3113
1488	3116
1489	3118
1489	3121
1490	3123
1491	3126
1488	3128
1485	3130
1484	3133
1484	3135
1488	3138
1490	3140
1490	3142
1490	3145
1489	3147
1488	3150
1487	3152
1485	3154
1486	3158
1487	3160
1488	3163
1486	3165
1485	3167
1486	3170
1489	3172
1490	3175
1488	3177
1486	3179
1484	3182
1484	3184
1484	3187
1486	3189
1485	3192
1483	3194
1481	3196
1481	3200
1485	3202
1488	3205
1492	3207
1494	3209
1494	3212
1493	3214
1489	3217
1487	3219
1487	3221
1489	3224
1491	3226
1490	3229
1490	3231
1491	3233
1490	3236
1489	3238
1487	3241
1487	3244
1487	3246
1490	3249
1494	3251
1496	3254
1497	3256
1497	3258
1495	3261
1492	3263
1488	3266
1487	3268
1488	3270
1489	3273
1489	3275
1489	3278
1488	3280
1487	3282
1486	3286
1487	3288
1489	3291
1491	3293
1491	3296
1490	3298
1490	3300
1489	3303
1488	3305
1488	3308
1489	3310
1488	3312
1487	3315
1486	3317
1487	3320
1487	3322
1487	3324
1487	3328
1487	3330
1484	3333
1483	3335
1485	3337
1490	3340
1493	3342
1493	3345
1492	3347
1493	3349
1493	3352
1492	3354
1490	3357
1489	3359
1489	3361
1489	3364
1489	3366
1489	3369
1489	3372
1488	3374
1484	3377
1484	3379
1486	3382
1488	3384
1487	3387
1485	3389
1485	3391
1487	3394
1489	3396
1490	3399
1490	3401
1489	3403
1489	3406
1488	3408
1489	3411
1488	3414
1488	3416
1488	3419
1488	3421
1489	3424
1490	3426
1491	3428
1489	3431
1488	3433
1487	3436
1486	3438
1487	3440
1487	3443
1485	3445
1484	3448
1484	3450
1484	3452
1486	3456
1487	3458
1487	3461
1487	3463
1486	3465
1485	3468
1485	3470
1486	3473
1487	3475
1488	3478
1488	3480
1489	3482
1489	3485
1488	3487
1487	3490
1488	3492
1490	3494
1490	3497
1489	3500
1488	3503
1488	3505
1486	3507
1483	3510
1481	3512
1483	3515
1485	3517
1487	3519
1487	3522
1485	3524
1486	3527
1487	3529
1489	3531
1489	3534
1489	3536
1489	3539
1488	3542
1486	3544
1484	3547
1484	3549
1484	3552
1484	3554
1484	3557
1484	3559
1485	3561
1486	3564
1486	3566
1485	3569
1485	3571
1484	3573
1483	3576
1483	3578
1484	3581
1487	3584
1488	3586
1488	3589
1489	3591
1491	3594
1488	3596
1485	3598
1483	3601
1482	3603
1483	3606
1484	3608
1486	3610
1488	3613
1489	3615
1491	3618
1491	3620
1491	3622
1490	3625
1488	3628
1486	3631
1487	3633
1487	3636
1488	3638
1488	3640
1489	3643
1490	3645
1493	3648
1492	3650
1491	3652
1490	3655
1489	3657
1491	3660
1492	3662
1493	3664
1491	3667
1489	3670
1488	3673
1489	3675
1491	3677
1490	3680
1489	3682
1489	3685
1489	3687
1488	3689
1488	3692
1488	3694
1487	3697
1485	3699
1486	3701
1488	3704
1490	3706
1492	3709
1491	3712
1490	3714
1489	3717
1485	3719
1481	3722
1481	3724
1483	3727
1487	3729
1489	3731
1490	3734
1490	3736
1490	3739
1491	3741
1489	3743
1487	3746
1487	3748
1489	3751
1490	3753
1490	3756
1489	3759
1488	3761
1490	3764
1490	3766
1489	3768
1486	3771
1483	3773
1483	3776
1483	3778
1483	3780
1484	3783
1485	3785
1485	3788
1484	3790
1485	3793
1485	3795
1485	3798
1486	3801
1484	3803
1482	3806
1482	3808
1484	3810
1487	3813
1488	3815
1487	3818
1486	3820
1486	3822
1486	3825
1485	3827
1484	3830
1484	3832
1483	3834
1483	3837
1485	3840
1486	3843
1486	3845
1486	3847
1487	3850
1487	3852
1487	3855
1484	3857
1484	3859
1485	3862
1489	3864
1492	3867
1494	3869
1493	3871
1491	3874
1489	3876
1489	3879
1489	3881
1490	3885
1488	3887
1486	3889
1484	3892
1484	3894
1486	3897
1487	3899
1486	3901
1485	3904
1483	3906
1482	3909
1483	3911
1486	3913
1491	3916
1492	3918
1490	3921
1488	3923
1487	3926
1487	3929
1487	3931
1485	3934
1483	3936
1481	3938
1479	3941
1480	3943
1481	3946
1481	3948
1482	3950
1483	3953
1482	3955
1482	3958
1481	3960
1481	3962
1482	3965
1481	3968
1480	3971
1477	3973
1473	3976
1472	3978
1473	3980
1477	3983
1479	3985
1479	3988
1477	3990
1477	3992
1476	3995
1475	3997
1473	4000
1473	4002
1475	4004
1478	4007
1479	4009
1477	4013
1476	4015
1476	4017
1478	4020
1480	4022
1481	4025
1480	4027
1479	4029
1478	4032
1479	4034
1479	4037
1478	4039
1477	4042
1475	4044
1475	4046
1475	4049
1477	4051
1477	4055
1477	4057
1477	4059
1478	4062
1479	4064
1481	4067
1481	4069
1480	4071
1479	4074
1480	4076
1480	4079
1481	4081
1483	4083
1482	4086
1481	4088
1481	4091
1480	4093
1480	4096
1480	4099
1479	4101
1479	4104
1480	4106
1481	4108
1483	4111
1484	4113
1485	4116
1485	4118
1486	4120
1486	4123
1485	4125
1485	4128
1485	4130
1485	4132
1482	4135
1480	4137
1481	4141
1483	4143
1485	4146
1487	4148
1487	4150
1486	4153
1485	4155
1483	4158
1483	4160
1486	4162
1489	4165
1490	4167
1491	4170
1492	4172
1491	4174
1492	4177
1491	4179
1491	4183
1490	4185
1489	4187
1489	4190
1488	4192
1488	4195
1488	4197
1487	4199
1488	4202
1491	4204
1494	4207
1495	4209
1495	4211
1494	4214
1493	4216
1492	4219
1491	4221
1491	4224
1490	4227
1490	4229
1489	4232
1490	4234
1489	4236
1489	4239
1486	4241
1484	4244
1485	4246
1487	4249
1489	4251
1491	4253
1491	4256
1490	4258
1489	4261
1488	4263
1487	4265
1486	4269
1486	4271
1484	4274
1483	4276
1483	4278
1483	4281
1483	4283
1483	4286
1484	4288
1484	4290
1485	4293
1486	4295
1487	4298
1488	4300
1489	4302
1490	4305
1489	4307
1488	4311
1487	4313
1486	4315
1486	4318
1488	4320
1490	4323
1491	4325
1491	4328
1491	4330
1489	4332
1488	4335
1486	4337
1485	4340
1485	4342
1487	4344
1488	4347
1489	4349
1489	4353
1489	4355
1489	4357
1489	4360
1488	4362
1488	4365
1488	4367
1488	4369
1489	4372
1489	4374
1489	4377
1489	4379
1489	4381
1491	4384
1492	4386
1493	4389
1492	4391
1491	4393
1491	4397
1489	4399
1489	4402
1489	4404
1489	4406
1490	4409
1490	4411
1490	4414
1491	4416
1492	4419
1491	4421
1490	4423
1490	4426
1491	4428
1491	4431
1490	4433
1490	4435
1490	4439
1491	4441
1491	4444
1491	4446
1490	4448
1489	4451
1488	4453
1488	4456
1488	4458
1489	4460
1489	4463
1490	4465
1491	4468
1493	4470
1493	4472
1492	4475
1490	4477
1488	4481
1488	4483
1489	4485
1491	4488
1490	4490
1487	4493
1487	4495
1488	4498
1490	4500
1493	4502
1494	4505
1494	4507
1493	4510
1493	4512
1494	4514
1493	4517
1493	4519
1492	4523
1492	4525
1491	4527
1492	4530
1493	4532
1492	4535
1493	4537
1491	4539
1490	4542
1487	4544
1485	4547
1485	4549
1487	4551
1490	4554
1492	4556
1494	4559
1495	4561
1495	4563
1495	4567
1495	4569
1494	4572
1492	4574
1492	4577
1493	4579
1494	4581
1494	4584
1494	4586
1495	4589
1494	4591
1493	4593
1492	4596
1492	4598
1493	4601
1495	4603
1496	4605
1495	4609
1494	4611
1495	4614
1497	4616
1497	4618
1497	4621
1497	4623
1494	4626
1492	4628
1490	4630
1490	4633
1490	4635
1490	4638
1489	4640
1487	4642
1487	4645
1487	4647
1488	4651
1489	4653
1489	4656
1489	4658
1489	4660
1488	4663
1487	4665
1488	4668
1488	4670
1488	4672
1485	4675
1483	4677
1482	4680
1482	4682
1482	4684
1484	4687
1485	4689
1485	4692
1486	4695
1488	4697
1489	4700
1490	4702
1491	4705
1491	4707
1490	4709
1489	4712
1488	4714
1486	4717
1485	4719
1486	4721
1486	4724
1487	4726
1487	4729
1489	4731
1492	4734
1494	4737
1495	4739
1493	4742
1490	4744
1488	4747
1487	4749
1488	4751
1488	4754
1489	4756
1490	4759
1490	4761
1490	4763
1489	4766
1489	4768
1489	4771
1488	4773
1488	4775
1488	4779
1488	4781
1487	4784
1487	4786
1488	4788
1489	4791
1490	4793
1491	4796
1491	4798
1491	4801
1489	4803
1487	4805
1488	4808
1490	4810
1491	4813
1492	4815
1491	4817
1489	4820
1487	4823
1485	4826
1487	4828
1491	4830
1493	4833
1495	4835
1494	4838
1490	4840
1488	4842
1488	4845
1490	4847
1491	4850
1491	4852
1489	4854
1487	4857
1485	4859
1484	4862
1485	4865
1485	4867
1487	4870
1488	4872
1490	4875
1491	4877
1491	4879
1491	4882
1490	4884
1490	4887
1489	4889
1488	4892
1486	4894
1484	4896
1484	4899
1483	4901
1484	4904
1484	4907
1485	4909
1486	4912
1487	4914
1487	4917
1486	4919
1485	4921
1487	4924
1491	4926
1492	4929
1492	4931
1492	4933
1492	4936
1491	4938
1489	4941
1487	4943
1487	4945
1486	4948
1485	4951
1485	4954
1486	4956
1487	4958
1488	4961
1488	4963
1487	4966
1486	4968
1486	4971
1486	4973
1488	4975
1489	4978
1489	4980
1489	4983
1488	4985
1487	4987
1484	4990
1484	4993
1485	4996
1489	4998
1491	5000
1490	5003
1489	5005
1486	5008
1483	5010
1481	5012
1481	5015
1481	5017
1481	5020
1481	5022
1481	5024
1481	5027
1481	5029
1482	5032
1482	5035
1482	5037
1482	5040
1483	5042
1484	5045
1485	5047
1485	5050
1486	5052
1486	5054
1488	5057
1489	5059
1489	5062
1489	5064
1487	5066
1487	5069
1486	5071
1487	5074
1487	5076
1486	5079
1485	5082
1485	5084
1486	5087
1485	5089
1484	5091
1484	5094
1486	5096
1487	5099
1488	5101
1487	5103
1486	5106
1485	5108
1484	5111
1482	5113
1481	5115
1480	5118
1480	5121
1483	5124
1485	5126
1487	5129
1488	5131
1487	5133
1486	5136
1488	5138
1489	5141
1489	5143
1488	5145
1488	5148
1492	5150
1494	5153
1494	5155
1492	5157
1490	5160
1489	5163
1489	5166
1488	5168
1487	5170
1485	5173
1485	5175
1486	5178
1487	5180
1488	5182
1489	5185
1488	5187
1486	5190
1484	5192
1483	5194
1484	5197
1485	5199
1485	5202
1485	5204
1485	5207
1483	5210
1482	5212
1481	5215
1481	5217
1483	5219
1485	5222
1485	5224
1484	5227
1482	5229
1481	5232
1481	5234
1482	5236
1484	5239
1486	5241
1487	5244
1488	5246
1489	5249
1489	5252
1488	5254
1487	5257
1486	5259
1484	5261
1482	5264
1479	5266
1477	5269
1478	5271
1480	5273
1481	5276
1481	5278
1483	5281
1485	5283
1486	5285
1485	5288
1486	5291
1488	5294
1488	5296
1487	5298
1487	5301
1487	5303
1487	5306
1486	5308
1485	5310
1485	5313
1483	5315
1481	5318
1478	5320
1477	5323
1478	5325
1479	5327
1480	5330
1482	5332
1485	5336
1486	5338
1487	5340
1485	5343
1484	5345
1482	5348
1484	5350
1486	5352
1487	5355
1487	5357
1487	5360
1487	5362
1487	5364
1486	5367
1485	5369
1483	5372
1482	5374
1481	5377
1480	5380
1478	5382
1477	5385
1479	5387
1481	5389
1483	5392
1485	5394
1485	5397
1486	5399
1487	5401
1488	5404
1488	5406
1488	5409
1487	5411
1487	5414
1486	5416
1485	5419
1484	5422
1483	5424
1483	5427
1484	5429
1486	5431
1486	5434
1488	5436
1488	5439
1489	5441
1489	5443
1489	5446
1489	5448
1489	5451
1489	5453
1489	5455
1488	5458
1486	5460
1483	5464
1479	5466
1478	5468
1481	5471
1484	5473
1486	5476
1488	5478
1488	5480
1489	5483
1490	5485
1489	5488
1487	5490
1488	5493
1489	5495
1489	5497
1489	5500
1488	5502
1492	5506
1496	5508
1494	5510
1487	5513
1482	5515
1476	5518
1473	5520
1473	5522
1481	5525
1484	5527
1476	5530
1472	5532
1478	5534
1489	5537
1480	5539
1473	5542
1508	5544
1543	5547
1561	5550
1566	5552
1543	5555
1535	5557
1566	5559
1612	5562
1667	5564
1694	5567
1723	5569
1707	5572
1646	5574
1609	5576
1625	5579
1647	5581
1642	5584
1615	5586
1590	5588
1578	5592
1574	5594
1575	5597
1576	5599
1577	5601
1591	5604
1622	5606
1643	5609
1656	5611
1647	5613
1624	5616
1617	5618
1624	5621
1627	5623
1601	5625
1561	5628
1540	5630
1541	5634
1540	5636
1549	5638
1543	5641
1515	5643
1489	5646
1513	5648
1581	5650
1616	5653
1625	5655
1620	5658
1622	5660
1607	5663
1591	5665
1576	5667
1554	5670
1514	5672
1502	5676
1517	5678
1524	5680
1520	5683
1533	5685
1566	5688
1628	5690
1658	5692
1643	5695
1607	5697
1593	5700
1592	5702
1550	5704
1501	5707
1496	5709
1504	5712
1501	5714
1490	5716
1476	5720
1468	5722
1462	5725
1484	5727
1510	5729
1562	5732
1604	5734
1606	5737
1577	5739
1518	5742
1491	5744
1463	5746
1443	5749
1443	5751
1459	5754
1461	5756
1494	5758
1549	5762
1545	5764
1547	5767
1578	5769
1574	5771
1529	5774
1489	5776
1498	5779
1510	5781
1516	5783
1502	5786
1486	5788
1474	5791
1465	5793
1450	5795
1444	5798
1449	5800
1480	5804
1530	5806
1601	5809
1628	5811
1607	5813
1577	5816
1549	5818
1510	5821
1487	5823
1464	5825
1452	5828
1455	5830
1479	5833
1523	5835
1567	5837
1556	5840
1513	5842
1518	5846
1526	5848
1521	5850
1507	5853
1497	5855
1481	5858
1476	5860
1479	5862
1485	5865
1469	5867
1474	5870
1514	5872
1524	5874
1496	5877
1458	5879
1448	5882
1442	5884
1478	5888
1524	5890
1526	5892
1495	5895
1491	5897
1541	5900
1562	5902
1514	5904
1480	5907
1480	5909
1500	5912
1477	5914
1457	5916
1507	5919
1572	5921
1561	5924
1525	5926
1471	5928
1452	5932
1437	5934
1423	5937
1402	5939
1401	5941
1449	5944
1505	5946
1491	5949
1435	5951
1394	5954
1407	5956
1422	5958
1435	5961
1440	5963
1463	5966
1473	5968
1455	5970
1474	5974
1523	5976
1538	5979
1511	5981
1477	5983
1461	5986
1451	5988
1481	5991
1515	5993
1516	5995
1485	5998
1466	6000
1485	6003
1502	6005
1497	6007
1485	6010
1493	6012
1498	6016
1490	6018
1471	6020
1438	6023
1424	6025
1433	6028
1460	6030
1511	6033
1555	6035
1523	6037
1457	6040
1419	6042
1416	6045
1431	6047
1444	6049
1462	6052
1455	6054
1433	6057
1444	6060
1449	6062
1462	6065
1526	6067
1555	6070
1540	6072
1484	6074
1454	6077
1440	6079
1430	6082
1432	6084
1471	6086
1498	6089
1487	6091
1472	6094
1489	6096
1513	6099
1529	6102
1534	6104
1516	6107
1491	6109
1506	6112
1524	6114
1504	6116
1459	6119
1420	6121
1420	6124
1466	6126
1485	6128
1492	6131
1477	6133
1461	6136
1487	6138
1494	6140
1471	6144
1426	6146
1403	6149
1409	6151
1449	6153
1465	6156
1471	6158
1539	6161
1557	6163
1531	6165
1487	6168
1497	6170
1541	6173
1544	6175
1510	6178
1479	6180
1486	6182
1520	6185
1521	6188
1514	6191
1508	6193
1487	6195
1504	6198
1514	6200
1498	6203
1474	6205
1473	6207
1496	6210
1494	6212
1468	6215
1440	6217
1459	6219
1475	6222
1490	6224
1488	6227
1511	6230
1538	6232
1519	6235
1471	6237
1468	6240
1449	6242
1427	6245
1447	6247
1470	6249
1498	6252
1504	6254
1507	6257
1504	6259
1503	6261
1521	6264
1495	6266
1470	6269
1466	6272
1448	6274
1443	6277
1491	6279
1514	6282
1511	6284
1473	6286
1444	6289
1458	6291
1474	6294
1474	6296
1457	6298
1445	6301
1450	6303
1457	6306
1461	6308
1444	6310
1443	6313
1456	6316
1460	6319
1443	6321
1426	6324
1431	6326
1431	6328
1444	6331
1477	6333
1496	6336
1488	6338
1456	6340
1439	6343
1459	6345
1494	6348
1535	6350
1519	6352
1495	6355
1482	6358
1499	6361
1508	6363
1481	6365
1446	6368
1454	6370
1477	6373
1473	6375
1461	6377
1468	6380
1513	6382
1521	6385
1494	6387
1470	6390
1456	6392
1433	6394
1425	6397
1461	6400
1496	6403
1499	6405
1528	6407
1560	6410
1545	6412
1495	6415
1447	6417
1414	6419
1404	6422
1430	6424
1438	6427
1460	6429
1498	6431
1502	6434
1488	6436
1489	6439
1513	6441
1514	6444
1466	6447
1424	6449
1428	6452
1429	6454
1431	6456
1449	6459
1442	6461
1443	6464
1481	6466
1517	6468
1540	6471
1535	6473
1488	6476
1467	6478
1472	6480
1503	6483
1508	6486
1487	6489
1461	6491
1451	6494
1453	6496
1444	6498
1428	6501
1422	6503
1438	6506
1461	6508
1478	6510
1469	6513
1479	6515
1511	6518
1513	6520
1482	6522
1455	6525
1449	6528
1464	6531
1464	6533
1435	6535
1446	6538
1449	6540
1440	6543
1429	6545
1418	6547
1429	6550
1465	6552
1526	6555
1551	6557
1531	6559
1505	6562
1462	6564
1438	6567
1447	6569
1446	6572
1447	6575
1457	6577
1470	6580
1467	6582
1487	6585
1522	6587
1510	6589
1465	6592
1430	6594
1435	6597
1482	6599
1516	6601
1501	6604
1468	6606
1456	6609
1465	6611
1484	6614
1491	6617
1494	6619
1506	6622
1489	6624
1453	6626
1432	6629
1428	6631
1449	6634
1477	6636
1495	6638
1504	6641
1493	6643
1475	6646
1480	6648
1477	6650
1466	6653
1445	6656
1461	6659
1494	6661
1509	6663
1493	6666
1488	6668
1495	6671
1473	6673
1488	6676
1499	6678
1481	6680
1476	6683
1462	6685
1461	6688
1497	6690
1528	6692
1520	6695
1478	6697
1455	6701
1443	6703
1446	6705
1483	6708
1509	6710
1497	6713
1483	6715
1492	6717
1504	6720
1492	6722
1484	6725
1483	6727
1481	6729
1456	6732
1464	6734
1499	6737
1498	6739
1507	6743
1541	6745
1541	6747
1514	6750
1505	6752
1491	6755
1490	6757
1458	6759
1442	6762
1467	6764
1486	6767
1495	6769
1487	6771
1483	6774
1496	6776
1491	6779
1494	6781
1503	6784
1502	6787
1507	6789
1492	6792
1477	6794
1485	6796
1482	6799
1480	6801
1468	6804
1468	6806
1473	6808
1455	6811
1438	6813
1470	6816
1529	6818
1528	6820
1483	6823
1487	6825
1528	6829
1540	6831
1498	6834
1465	6836
1457	6838
1448	6841
1444	6843
1452	6846
1484	6848
1528	6850
1553	6853
1551	6855
1509	6858
1496	6860
1487	6862
1456	6865
1446	6867
1440	6871
1445	6873
1490	6875
1525	6878
1520	6880
1514	6883
1497	6885
1490	6887
1486	6890
1496	6892
1494	6895
1471	6897
1442	6899
1421	6902
1426	6904
1468	6907
1509	6909
1500	6913
1463	6915
1450	6917
1454	6920
1451	6922
1441	6925
1450	6927
1446	6929
1438	6932
1465	6934
1512	6937
1518	6939
1510	6941
1470	6944
1457	6946
1471	6949
1470	6951
1458	6953
1480	6957
1516	6959
1527	6962
1499	6964
1459	6966
1455	6969
1469	6971
1482	6974
1496	6976
1476	6978
1451	6981
1430	6983
1472	6986
1510	6988
1499	6991
1465	6993
1461	6995
1466	6999
1478	7001
1492	7004
1469	7006
1448	7008
1451	7011
1475	7013
1518	7016
1546	7018
1529	7020
1505	7023
1493	7025
1493	7028
1469	7030
1480	7032
1489	7035
1484	7037
1474	7041
1477	7043
1495	7045
1492	7048
1482	7050
1464	7053
1479	7055
1507	7058
1511	7060
1490	7062
1483	7065
1482	7067
1492	7070
1488	7072
1488	7074
1475	7077
1475	7079
1496	7083
1484	7085
1449	7087
1464	7090
1517	7092
1517	7095
1488	7097
1495	7099
1498	7102
1519	7104
1513	7107
1484	7109
1461	7111
1434	7114
1404	7116
1405	7119
1467	7121
1505	7124
1509	7127
1498	7129
1480	7132
1464	7134
1457	7137
1455	7139
1447	7141
1456	7144
1482	7146
1530	7149
1530	7151
1496	7153
1465	7156
1491	7158
1510	7161
1517	7163
1503	7165
1479	7169
1458	7171
1482	7174
1552	7176
1598	7178
1581	7181
1518	7183
1463	7186
1437	7188
1437	7190
1473	7193
1483	7195
1459	7198
1442	7200
1453	7203
1464	7205
1473	7207
1494	7211
1482	7213
1458	7216
1445	7218
1452	7220
1448	7223
1449	7225
1455	7228
1468	7230
1470	7232
1472	7235
1499	7237
1534	7240
1538	7242
1513	7244
1494	7247
1489	7249
1472	7252
1466	7255
1475	7257
1495	7260
1492	7262
1488	7265
1474	7267
1485	7269
1484	7272
1464	7274
1467	7277
1489	7279
1516	7281
1523	7284
1483	7286
1446	7289
1432	7291
1427	7294
1437	7297
1455	7299
1455	7302
1453	7304
1501	7307
1568	7309
1538	7311
1498	7314
1481	7316
1476	7319
1468	7321
1459	7323
1465	7326
1466	7328
1473	7331
1489	7333
1511	7335
1530	7339
1528	7341
1499	7344
1432	7346
1412	7348
1446	7351
1467	7353
1459	7356
1467	7358
1500	7361
1506	7363
1532	7365
1540	7368
1525	7370
1492	7373
1463	7375
1447	7377
1446	7380
1442	7383
1462	7386
1490	7388
1491	7390
1481	7393
1511	7395
1517	7398
1500	7400
1481	7402
1480	7405
1488	7407
1486	7410
1461	7412
1433	7414
1418	7417
1415	7419
1445	7422
1502	7425
1501	7427
1498	7430
1502	7432
1481	7435
1446	7437
1426	7440
1430	7442
1460	7444
1481	7447
1485	7449
1500	7452
1520	7454
1537	7456
1541	7459
1482	7461
1429	7464
1463	7467
1488	7469
1501	7472
1492	7474
1444	7477
1427	7479
1450	7481
1481	7484
1495	7486
1473	7489
1486	7491
1493	7493
1478	7496
1498	7498
1509	7501
1514	7503
1535	7506
1530	7508
1512	7511
1482	7514
1465	7516
1433	7519
1419	7521
1439	7523
1448	7526
1477	7528
1527	7531
1555	7533
1541	7535
1505	7538
1473	7540
1458	7543
1437	7545
1438	7547
1428	7550
1414	7553
1411	7556
1418	7558
1437	7560
1451	7563
1483	7565
1499	7568
1483	7570
1466	7573
1459	7575
1456	7577
1472	7580
1481	7582
1507	7585
1530	7587
1500	7589
1474	7592
1483	7595
1475	7598
1425	7600
1402	7602
1428	7605
1443	7607
1469	7610
1496	7612
1568	7614
1576	7617
1516	7619
1499	7622
1496	7624
1476	7626
1446	7629
1421	7631
1423	7634
1426	7636
1429	7640
1432	7642
1456	7644
1495	7647
1537	7649
1542	7652
1494	7654
1453	7656
1435	7659
1435	7661
1447	7664
1457	7666
1447	7668
1426	7671
1424	7673
1429	7676
1459	7678
1498	7681
1532	7684
1537	7686
1507	7689
1475	7691
1445	7693
1427	7696
1415	7698
1401	7701
1410	7703
1423	7705
1459	7708
1519	7710
1560	7713
1566	7715
1519	7718
1489	7720
1481	7723
1472	7726
1440	7728
1441	7731
1464	7733
1492	7735
1507	7738
1486	7740
1449	7743
1437	7745
1457	7747
1467	7750
1463	7752
1465	7755
1455	7757
1443	7759
1439	7762
1457	7764
1493	7768
1499	7770
1494	7772
1489	7775
1464	7777
1456	7780
1462	7782
1477	7784
1463	7787
1436	7789
1424	7792
1459	7794
1502	7797
1511	7799
1498	7801
1490	7804
1475	7806
1482	7810
1503	7812
1501	7814
1455	7817
1436	7819
1452	7822
1471	7824
1488	7826
1501	7829
1518	7831
1514	7834
1516	7836
1512	7838
1518	7841
1500	7843
1460	7846
1429	7848
1424	7851
1438	7854
1465	7856
1475	7859
1473	7861
1471	7864
1496	7866
1521	7868
1509	7871
1509	7873
1504	7876
1500	7878
1464	7880
1455	7883
1465	7885
1480	7888
1505	7890
1499	7892
1502	7896
1532	7898
1544	7901
1509	7903
1491	7905
1507	7908
1522	7910
1524	7913
1527	7915
1494	7917
1455	7920
1451	7922
1448	7925
1457	7927
1454	7930
1452	7932
1462	7934
1491	7938
1507	7940
1508	7943
1494	7945
1490	7947
1519	7950
1503	7952
1469	7955
1459	7957
1450	7959
1429	7962
1434	7964
1474	7967
1489	7969
1470	7971
1454	7974
1456	7976
1465	7980
1476	7982
1484	7984
1484	7987
1470	7989
1472	7992
1462	7994
1476	7997
1501	7999
1497	8001
1464	8004
1434	8006
1447	8009
1505	8011
1523	8013
1514	8016
1492	8018
1442	8022
1430	8024
1444	8026
1464	8029
1484	8031
1529	8034
1541	8036
1506	8038
1443	8041
1427	8043
1458	8046
1494	8048
1493	8050
1469	8053
1460	8055
1461	8058
1478	8060
1492	8062
1507	8066
1508	8068
1502	8071
1478	8073
1446	8075
1431	8078
1440	8080
1460	8083
1479	8085
1485	8087
1510	8090
1516	8092
1500	8095
1494	8097
1486	8100
1472	8102
1483	8104
1484	8108
1489	8110
1491	8113
1480	8115
1485	8117
1504	8120
1480	8122
1426	8125
1405	8127
1408	8129
1445	8132
1484	8134
1493	8137
1494	8139
1499	8141
1504	8144
1502	8146
1496	8150
1483	8152
1472	8154
1464	8157
1460	8159
1449	8162
1447	8164
1468	8166
1486	8169
1491	8171
1490	8174
1489	8176
1478	8178
1456	8181
1439	8183
1452	8186
1481	8188
1473	8192
1475	8194
1500	8196
1484	8199
1459	8201
1472	8204
1481	8206
1460	8208
1433	8211
1447	8213
1497	8216
1511	8218
1505	8220
1491	8223
1495	8225
1492	8228
1484	8230
1479	8232
1482	8236
1492	8238
1502	8241
1504	8243
1499	8245
1491	8248
1497	8250
1530	8253
1548	8255
1491	8257
1449	8260
1487	8262
1521	8265
1506	8267
1470	8269
1466	8272
1479	8274
1488	8278
1504	8280
1502	8283
1491	8285
1506	8287
1514	8290
1517	8292
1496	8295
1456	8297
1457	8299
1503	8302
1509	8304
1481	8307
1438	8309
1432	8311
1474	8314
1505	8316
1501	8320
1489	8322
1495	8324
1487	8327
1461	8329
1464	8332
1469	8334
1488	8336
1531	8339
1542	8341
1486	8344
1425	8346
1417	8349
1458	8351
1519	8353
1517	8356
1498	8358
1500	8361
1495	8364
1473	8366
1475	8369
1498	8371
1513	8374
1517	8376
1490	8378
1432	8381
1395	8383
1415	8386
1481	8388
1524	8390
1525	8393
1525	8395
1506	8398
1485	8400
1503	8402
1515	8406
1500	8408
1488	8411
1501	8413
1527	8415
1521	8418
1483	8420
1453	8423
1410	8425
1363	8428
1380	8430
1466	8432
1513	8435
1550	8437
1529	8440
1490	8442
1478	8444
1477	8448
1498	8450
1511	8453
1511	8455
1477	8457
1438	8460
1429	8462
1454	8465
1477	8467
1505	8469
1528	8472
1524	8474
1539	8477
1557	8479
1541	8481
1501	8484
1474	8486
1441	8489
1456	8492
1504	8494
1540	8497
1544	8499
1529	8502
1502	8504
1467	8507
1460	8509
1471	8511
1470	8514
1458	8516
1459	8519
1463	8521
1497	8523
1520	8526
1503	8528
1469	8531
1457	8534
1450	8536
1448	8539
1461	8541
1480	8544
1481	8546
1480	8548
1480	8551
1472	8553
1462	8556
1455	8558
1473	8560
1483	8563
1474	8565
1472	8568
1494	8570
1527	8572
1547	8576
1525	8578
1503	8581
1498	8583
1472	8586
1459	8588
1470	8590
1483	8593
1472	8595
1456	8598
1445	8600
1453	8602
1466	8605
1474	8607
1481	8610
1491	8612
1510	8614
1523	8617
1536	8620
1520	8623
1505	8625
1491	8627
1444	8630
1422	8632
1442	8635
1466	8637
1470	8639
1466	8642
1459	8644
1447	8647
1476	8649
1528	8652
1534	8654
1519	8656
1507	8659
1489	8662
1487	8665
1478	8667
1457	8669
1440	8672
1437	8674
1441	8677
1453	8679
1486	8681
1518	8684
1530	8686
1530	8689
1520	8691
1498	8693
1476	8696
1463	8698
1482	8701
1506	8704
1539	8706
1539	8709
1512	8711
1491	8714
1459	8716
1453	8718
1509	8721
1551	8723
1561	8726
1552	8728
1534	8731
1507	8733
1502	8735
1497	8738
1476	8740
1446	8743
1448	8745
1465	8748
1457	8751
1462	8753
1502	8756
1499	8758
1478	8760
1492	8763
1516	8765
1510	8768
1486	8770
1476	8772
1465	8775
1450	8777
1458	8780
1496	8782
1534	8784
1513	8787
1488	8790
1516	8793
1526	8795
1511	8798
1500	8800
1502	8802
1499	8805
1518	8807
1523	8810
1512	8812
1525	8814
1553	8817
1576	8819
1552	8822
1500	8824
1483	8826
1492	8829
1490	8832
1476	8835
1468	8837
1478	8839
1509	8842
1515	8844
1517	8847
1511	8849
1479	8851
1456	8854
1468	8856
1503	8859
1513	8861
1504	8864
1500	8866
1490	8868
1485	8871
1486	8873
1495	8877
1537	8879
1548	8881
1555	8884
1557	8886
1541	8889
1517	8891
1481	8893
1463	8896
1461	8898
1478	8901
1485	8903
1530	8905
1578	8908
1552	8910
1469	8913
1428	8915
1450	8918
1482	8921
1498	8923
1492	8926
1470	8928
1449	8931
1443	8933
1468	8935
1490	8938
1527	8940
1573	8943
1587	8945
1561	8947
1527	8950
1500	8952
1494	8955
1486	8957
1480	8960
1464	8963
1443	8965
1427	8968
1435	8970
1440	8972
1438	8975
1443	8977
1469	8980
1473	8982
1505	8984
1564	8987
1571	8989
1551	8992
1500	8994
1473	8996
1498	8999
1512	9001
1510	9005
1496	9007
1479	9010
1471	9012
1490	9014
1504	9017
1510	9019
1511	9022
1506	9024
1502	9026
1494	9029
1494	9031
1482	9034
1474	9036
1482	9038
1482	9041
1483	9043
1494	9047
1506	9049
1541	9051
1551	9054
1541	9056
1506	9059
1506	9061
1539	9063
1539	9066
1513	9068
1473	9071
1440	9073
1433	9075
1449	9078
1441	9080
1436	9083
1454	9085
1498	9089
1507	9091
1507	9093
1515	9096
1533	9098
1554	9101
1567	9103
1543	9105
1486	9108
1451	9110
1448	9113
1472	9115
1469	9117
1456	9120
1482	9122
1503	9125
1498	9127
1509	9129
1542	9133
1551	9135
1524	9138
1506	9140
1493	9143
1468	9145
1442	9147
1446	9150
1481	9152
1501	9155
1521	9157
1509	9159
1493	9162
1508	9164
1561	9167
1591	9169
1567	9171
1516	9175
1471	9177
1468	9180
1481	9182
1469	9184
1467	9187
1478	9189
1516	9192
1598	9194
1638	9196
1628	9199
1576	9201
1543	9204
1514	9206
1493	9209
1502	9211
1517	9213
1525	9217
1511	9219
1487	9222
1468	9224
1489	9226
1497	9229
1492	9231
1506	9234
1559	9236
1596	9238
1578	9241
1527	9243
1500	9246
1492	9248
1490	9250
1477	9253
1448	9255
1452	9259
1441	9261
1433	9263
1431	9266
1445	9268
1450	9271
1475	9273
1514	9276
1502	9278
1483	9280
1470	9283
1523	9285
1574	9288
1554	9290
1489	9292
1426	9295
1404	9297
1409	9300
1416	9303
1410	9305
1427	9308
1480	9310
1570	9313
1628	9315
1615	9317
1534	9320
1461	9322
1433	9325
1427	9327
1436	9329
1481	9332
1497	9334
1485	9337
1481	9339
1484	9342
1471	9345
1455	9347
1486	9350
1523	9352
1537	9355
1523	9357
1511	9359
1477	9362
1444	9364
1434	9367
1433	9369
1467	9371
1501	9374
1536	9376
1541	9379
1515	9381
1471	9383
1438	9387
1450	9389
1525	9392
1550	9394
1515	9396
1480	9399
1460	9401
1442	9404
1433	9406
1432	9409
1443	9411
1452	9413
1445	9416
1420	9418
1410	9421
1418	9423
1445	9425
1449	9428
1513	9431
1607	9434
1610	9436
1534	9438
1484	9441
1478	9443
1482	9446
1472	9448
1471	9450
1476	9453
1477	9455
1474	9458
1463	9460
1457	9462
1472	9465
1489	9467
1488	9470
1504	9473
1513	9476
1507	9478
1502	9480
1502	9483
1491	9485
1475	9488
1473	9490
1470	9492
1458	9495
1465	9497
1508	9500
1528	9502
1509	9504
1466	9507
1452	9509
1476	9512
1494	9515
1480	9517
1466	9520
1456	9522
1431	9525
1415	9527
1426	9529
1490	9532
1514	9534
1506	9537
1495	9539
1478	9542
1486	9544
1527	9546
1552	9549
1520	9551
1477	9554
1488	9556
1504	9559
1505	9562
1503	9564
1515	9567
1524	9569
1511	9571
1489	9574
1486	9576
1488	9579
1481	9581
1499	9583
1523	9586
1547	9588
1531	9591
1490	9593
1462	9595
1441	9598
1445	9601
1462	9604
1469	9606
1467	9609
1480	9611
1500	9613
1497	9616
1492	9618
1556	9621
1571	9623
1520	9625
1500	9628
1499	9630
1495	9633
1496	9635
1500	9637
1487	9640
1463	9643
1484	9646
1510	9648
1528	9650
1520	9653
1482	9655
1448	9658
1436	9660
1442	9662
1442	9665
1466	9667
1479	9670
1464	9672
1459	9674
1466	9677
1462	9679
1464	9682
1484	9684
1492	9688
1525	9690
1552	9692
1534	9695
1487	9697
1463	9700
1462	9702
1508	9704
1519	9707
1494	9709
1485	9712
1490	9714
1488	9716
1475	9719
1466	9721
1469	9724
1465	9726
1479	9729
1512	9732
1509	9734
1486	9737
1496	9739
1508	9741
1508	9744
1492	9746
1465	9749
1453	9751
1455	9754
1481	9756
1489	9758
1468	9761
1428	9763
1418	9766
1447	9768
1472	9771
1481	9774
1514	9776
1527	9779
1509	9781
1477	9783
1458	9786
1449	9788
1455	9791
1457	9793
1468	9795
1486	9798
1506	9800
1513	9803
1498	9805
1477	9807
1470	9810
1449	9812
1445	9816
1433	9818
1422	9820
1433	9823
1488	9825
1525	9828
1531	9830
1523	9833
1508	9835
1491	9837
1479	9840
1478	9842
1475	9845
1473	9847
1456	9849
1434	9852
1438	9854
1472	9858
1485	9860
1479	9862
1469	9865
1454	9867
1490	9870
1512	9872
1503	9874
1475	9877
1476	9879
1484	9882
1506	9884
1515	9886
1502	9889
1464	9891
1438	9894
1453	9896
1472	9900
1472	9902
1466	9904
1453	9907
1443	9909
1451	9912
1501	9914
1531	9916
1515	9919
1470	9921
1444	9924
1428	9926
1417	9928
1436	9931
1460	9933
1433	9936
1400	9938
1398	9940
1408	9944
1406	9946
1416	9949
1440	9951
1475	9953
1479	9956
1471	9958
1457	9961
1480	9963
1509	9965
1488	9968
1460	9970
1455	9973
1469	9975
1498	9978
1530	9980
1538	9982
1498	9986
1464	9988
1460	9991
1474	9993
1490	9995
1499	9998
1480	10000
1460	10003
1458	10005
1448	10008
1449	10010
1478	10012
1508	10015
1493	10017
1464	10020
1456	10022
1464	10025
1470	10028
1463	10031
1448	10033
1426	10036
1446	10038
1476	10041
1502	10043
1494	10045
1476	10048
1475	10050
1452	10053
1442	10055
1485	10058
1503	10060
1475	10063
1446	10065
1428	10068
1422	10071
1455	10073
1501	10076
1522	10078
1510	10081
1477	10083
1462	10086
1453	10088
1439	10091
1427	10093
1437	10096
1455	10098
1485	10100
1490	10103
1477	10105
1441	10108
1421	10110
1433	10114
1451	10116
1475	10119
1507	10121
1483	10124
1448	10126
1440	10128
1460	10131
1461	10133
1460	10136
1457	10138
1454	10141
1457	10143
1464	10146
1480	10148
1492	10151
1482	10153
1467	10157
1432	10159
1402	10161
1407	10164
1441	10166
1492	10169
1518	10171
1505	10174
1463	10176
1420	10179
1425	10181
1466	10184
1504	10186
1522	10188
1490	10191
1445	10193
1413	10196
1404	10199
1425	10202
1455	10204
1455	10207
1428	10209
1437	10212
1480	10214
1490	10216
1481	10219
1465	10221
1442	10224
1429	10226
1421	10229
1440	10231
1456	10234
1470	10236
1459	10240
1425	10242
1403	10245
1438	10247
1475	10249
1470	10252
1442	10254
1423	10257
1423	10259
1459	10262
1502	10264
1526	10267
1539	10269
1525	10272
1498	10274
1474	10276
1469	10279
1460	10281
1454	10285
1446	10287
1421	10290
1395	10292
1410	10295
1464	10297
1497	10300
1492	10302
1488	10304
1482	10307
1456	10309
1420	10312
1388	10314
1388	10317
1438	10319
1465	10322
1487	10324
1515	10328
1511	10330
1490	10332
1474	10335
1459	10337
1455	10340
1448	10342
1445	10345
1454	10347
1460	10350
1469	10352
1444	10355
1433	10357
1450	10360
1474	10362
1469	10364
1451	10368
1461	10370
1475	10373
1471	10375
1458	10378
1478	10380
1519	10383
1520	10385
1495	10388
1445	10390
1428	10392
1451	10395
1480	10397
1508	10400
1522	10402
1497	10405
1443	10407
1412	10411
1394	10413
1394	10416
1418	10418
1441	10420
1450	10423
1450	10425
1468	10428
1505	10430
1529	10433
1515	10435
1487	10438
1472	10440
1478	10443
1493	10445
1504	10448
1504	10450
1475	10452
1442	10456
1430	10458
1436	10461
1438	10463
1445	10466
1455	10468
1465	10471
1448	10473
1427	10476
1432	10478
1445	10480
1446	10483
1444	10485
1484	10488
1516	10490
1520	10493
1504	10496
1467	10499
1439	10501
1463	10504
1494	10506
1493	10508
1481	10511
1465	10513
1458	10516
1463	10518
1467	10521
1462	10523
1453	10526
1448	10528
1449	10531
1448	10533
1458	10536
1488	10539
1498	10541
1484	10544
1471	10546
1452	10549
1436	10551
1420	10554
1423	10556
1445	10559
1456	10561
1452	10564
1452	10566
1459	10568
1460	10571
1454	10573
1447	10576
1445	10578
1451	10582
1469	10584
1494	10587
1502	10589
1503	10592
1492	10594
1476	10596
1470	10599
1462	10601
1451	10604
1441	10606
1438	10609
1434	10611
1443	10614
1448	10616
1449	10619
1447	10621
1445	10625
1449	10627
1452	10629
1453	10632
1452	10634
1451	10637
1451	10639
1451	10642
1449	10644
1445	10647
1441	10649
1441	10652
1441	10654
1440	10656
1438	10659
1436	10661
1437	10664
1441	10667
1445	10670
1456	10672
1465	10675
1467	10677
1459	10680
1450	10682
1447	10684
1448	10687
1452	10689
1457	10692
1458	10694
1456	10697
1455	10699
1456	10702
1454	10704
1454	10707
1454	10710
1453	10712
1451	10715
1447	10717
1445	10720
1445	10722
1448	10725
1455	10727
1459	10730
1459	10732
1457	10735
1451	10737
1445	10740
1443	10742
1447	10744
1450	10747
1454	10749
1457	10753
1459	10755
1459	10758
1459	10760
1457	10763
1458	10765
1461	10768
1465	10770
1468	10772
1471	10775
1473	10777
1475	10780
1473	10782
1470	10785
1471	10787
1475	10790
1477	10792
1474	10796
1473	10798
1473	10800
1476	10803
1478	10805
1480	10808
1479	10810
1476	10813
1473	10815
1476	10818
1478	10820
1479	10823
1483	10825
1486	10827
1486	10830
1485	10832
1482	10835
1481	10838
1480	10841
1479	10843
1478	10846
1474	10848
1470	10851
1470	10853
1475	10856
1480	10858
1483	10860
1485	10863
1485	10865
1485	10868
1485	10870
1485	10873
1485	10875
1485	10878
1485	10881
1485	10884
1486	10886
1486	10888
1487	10891
1488	10893
1488	10896
1486	10898
1485	10901
1484	10903
1485	10906
1485	10908
1485	10911
1484	10913
1483	10915
1484	10918
1486	10920
1486	10924
1486	10926
1486	10929
1483	10931
1481	10934
1479	10936
1478	10939
1478	10941
1477	10943
1478	10946
1480	10948
1482	10951
1484	10953
1485	10956
1486	10958
1485	10961
1483	10963
1483	10967
1485	10969
1487	10972
1488	10974
1489	10976
1490	10979
1490	10981
1491	10984
1492	10986
1493	10989
1495	10991
1496	10994
1497	10996
1498	10999
1497	11001
1496	11003
1495	11006
1496	11009
1497	11012
1497	11014
1495	11017
1495	11019
1496	11022
1498	11024
1500	11027
1501	11029
1502	11031
1503	11034
1503	11036
1501	11039
1499	11041
1499	11044
1501	11046
1501	11049
1502	11052
1503	11055
1505	11057
1504	11060
1502	11062
1503	11064
1503	11067
1503	11069
1503	11072
1503	11074
1504	11077
1503	11079
1503	11082
1503	11084
1503	11087
1504	11089
1506	11091
1506	11095
1504	11097
1502	11100
1501	11102
1502	11105
1503	11107
1503	11110
1503	11112
1503	11115
1503	11117
1503	11119
1504	11122
1504	11124
1503	11127
1500	11129
1498	11132
1498	11134
1499	11138
1500	11140
1502	11143
1503	11145
1503	11148
1504	11150
1505	11152
1505	11155
1504	11157
1503	11160
1501	11162
1500	11165
1500	11167
1500	11170
1500	11172
1500	11175
1500	11177
1500	11180
1500	11183
1499	11185
1499	11188
1500	11190
1500	11193
1499	11195
1499	11198
1499	11200
1500	11203
1498	11205
1500	11207
1502	11210
1502	11212
1500	11215
1498	11217
1496	11220
1495	11223
1495	11226
1497	11228
1498	11231
1498	11233
1498	11235
1498	11238
1497	11240
1497	11243
1497	11245
1497	11248
1497	11250
1497	11253
1497	11255
1496	11258
1495	11260
1495	11264
1494	11266
1493	11268
1492	11271
1492	11273
1492	11276
1492	11278
1493	11281
1493	11283
1493	11286
1492	11288
1491	11291
1490	11293
1490	11295
1491	11298
1493	11300
1494	11303
1494	11305
1493	11309
1493	11311
1493	11314
1493	11316
1493	11319
1495	11321
1497	11323
1498	11326
1497	11328
1495	11331
1493	11333
1492	11336
1492	11338
1492	11341
1491	11343
1491	11346
1491	11348
1490	11352
1489	11354
1488	11356
1489	11359
1489	11361
1489	11364
1489	11366
1490	11369
1490	11371
1490	11374
1490	11376
1491	11379
1490	11381
1490	11383
1490	11386
1490	11388
1489	11392
1488	11394
1486	11397
1486	11399
1487	11402
1488	11404
1488	11407
1489	11409
1490	11411
1491	11414
1491	11416
1491	11419
1491	11421
1491	11424
1490	11426
1489	11429
1489	11431
1490	11435
1490	11437
1490	11439
1489	11442
1488	11444
1488	11447
1487	11449
1487	11452
1488	11454
1489	11457
1490	11459
1491	11462
1492	11464
1491	11467
1490	11469
1490	11471
1490	11474
1490	11476
1489	11480
1488	11482
1487	11485
1487	11487
1487	11490
1487	11492
1488	11495
1488	11497
1489	11499
1489	11502
1490	11504
1492	11507
1493	11509
1494	11512
1498	11514
1499	11517
1499	11520
1499	11523
1498	11525
1495	11527
1493	11530
1492	11532
1492	11535
1493	11537
1493	11540
1492	11542
1491	11545
1492	11547
1492	11550
1491	11552
1488	11555
1486	11557
1486	11559
1488	11563
1489	11565
1489	11568
1489	11570
1488	11573
1488	11575
1487	11578
1487	11580
1486	11583
1486	11585
1486	11587
1486	11590
1485	11592
1485	11595
1485	11597
1484	11600
1485	11602
1486	11606
1487	11608
1488	11611
1488	11613
1488	11615
1488	11618
1489	11620
1489	11623
1488	11625
1487	11628
1485	11630
1483	11633
1485	11635
1487	11638
1490	11640
1490	11642
1491	11645
1490	11648
1489	11651
1487	11653
1488	11656
1489	11658
1491	11661
1492	11663
1492	11666
1492	11668
1492	11671
1491	11673
1491	11675
1491	11678
1490	11680
1490	11683
1490	11685
1489	11688
1487	11691
1487	11694
1488	11696
1488	11699
1488	11701
1488	11703
1488	11706
1487	11708
1487	11711
1486	11713
1484	11716
1481	11718
1481	11721
1484	11723
1486	11726
1487	11728
1487	11730
1488	11734
1489	11736
1489	11739
1487	11741
1486	11744
1486	11746
1486	11749
1487	11751
1488	11754
1488	11756
1487	11758
1487	11761
1487	11763
1487	11766
1487	11768
1487	11771
1487	11773
1486	11777
1486	11779
1487	11782
1487	11784
1489	11787
1489	11789
1488	11791
1488	11794
1487	11796
1489	11799
1492	11801
1492	11804
1491	11806
1489	11809
1487	11811
1485	11814
1485	11816
1487	11819
1490	11822
1491	11824
1490	11827
1488	11829
1486	11832
1482	11834
1478	11837
1476	11839
1474	11842
1473	11844
1474	11846
1477	11849
1478	11851
1479	11854
1479	11856
1478	11859
1477	11862
1476	11865
1479	11867
1479	11870
1479	11872
1478	11875
1478	11877
1478	11879
1478	11882
1479	11884
1479	11887
1478	11889
1477	11892
1480	11894
1481	11897
1482	11899
1482	11902
1482	11905
1482	11907
1482	11910
1481	11912
1479	11915
1475	11917
1477	11920
1480	11922
1482	11925
1483	11927
1482	11930
1481	11932
1481	11934
1481	11937
1481	11939
1482	11942
1481	11944
1479	11948
1477	11950
1478	11953
1478	11955
1478	11958
1479	11960
1479	11962
1480	11965
1481	11967
1482	11970
1481	11972
1479	11975
1479	11977
1479	11980
1478	11982
1478	11985
1478	11987
1479	11991
1480	11993
1479	11995
1477	11998
1476	12000
1478	12003
1477	12005
1477	12008
1476	12010
1477	12013
1477	12015
1476	12018
1475	12020
1473	12022
1473	12025
1473	12027
1474	12030
1477	12033
1479	12036
1480	12038
1480	12041
1479	12043
1478	12046
1477	12048
1478	12050
1480	12053
1479	12055
1479	12058
1479	12060
1480	12063
1481	12065
1479	12068
1477	12070
1477	12073
1476	12076
1475	12079
1475	12081
1474	12083
1474	12086
1474	12088
1472	12091
1471	12093
1468	12096
1467	12098
1470	12101
1476	12103
1476	12106
1476	12108
1476	12110
1475	12113
1474	12115
1474	12119
1473	12121
1473	12124
1474	12126
1474	12129
1475	12131
1475	12134
1476	12136
1477	12138
1480	12141
1480	12143
1480	12146
1480	12148
1478	12151
1477	12153
1478	12156
1482	12158
1483	12162
1487	12164
1494	12166
1496	12169
1498	12171
1496	12174
1490	12176
1484	12179
1479	12181
1475	12184
1471	12186
1470	12189
1468	12191
1467	12194
1467	12196
1466	12198
1466	12201
1466	12204
1466	12207
1465	12209
1464	12212
1463	12214
1463	12217
1464	12219
1465	12222
1465	12224
1465	12226
1465	12229
1466	12231
1467	12234
1467	12236
1466	12239
1467	12241
1468	12244
1468	12247
1467	12250
1467	12252
1470	12254
1474	12257
1477	12259
1478	12262
1477	12264
1474	12267
1471	12269
1470	12272
1468	12274
1467	12277
1466	12279
1464	12282
1465	12284
1470	12286
1472	12290
1472	12292
1469	12295
1468	12297
1471	12300
1472	12302
1472	12305
1470	12307
1469	12310
1469	12312
1469	12314
1469	12317
1469	12319
1470	12322
1471	12324
1472	12327
1473	12329
1473	12333
1477	12335
1480	12338
1481	12340
1478	12342
1476	12345
1473	12347
1473	12350
1475	12352
1476	12355
1475	12357
1474	12360
1474	12362
1475	12365
1475	12367
1475	12369
1474	12372
1474	12375
1475	12378
1478	12380
1477	12383
1474	12385
1470	12388
1472	12390
1475	12393
1477	12395
1477	12398
1478	12400
1480	12402
1483	12405
1483	12407
1482	12410
1482	12412
1484	12416
1486	12418
1485	12421
1481	12423
1478	12426
1479	12428
1483	12430
1483	12433
1482	12435
1481	12438
1479	12440
1478	12443
1478	12445
1482	12448
1486	12450
1488	12453
1487	12455
1485	12457
1485	12461
1484	12463
1483	12466
1485	12468
1486	12471
1487	12473
1489	12476
1493	12478
1498	12481
1500	12483
1498	12486
1496	12488
1493	12490
1492	12493
1491	12495
1493	12498
1492	12500
1488	12504
1487	12506
1489	12509
1492	12511
1493	12514
1491	12516
1485	12518
1483	12521
1481	12523
1480	12526
1480	12528
1479	12531
1478	12533
1479	12536
1481	12538
1481	12541
1481	12544
1480	12546
1480	12549
1479	12551
1479	12554
1480	12556
1480	12559
1481	12561
1485	12564
1488	12566
1488	12569
1487	12571
1486	12574
1486	12576
1485	12578
1484	12581
1484	12583
1483	12587
1483	12589
1484	12592
1484	12594
1484	12597
1483	12599
1483	12602
1483	12604
1482	12606
1481	12609
1481	12611
1482	12614
1484	12616
1484	12619
1486	12621
1487	12624
1487	12626
1489	12630
1492	12632
1497	12634
1499	12637
1498	12639
1495	12642
1489	12644
1486	12647
1486	12649
1485	12652
1484	12654
1483	12657
1480	12659
1479	12662
1481	12664
1482	12666
1482	12669
1482	12672
1481	12675
1481	12677
1481	12680
1481	12682
1482	12685
1484	12687
1486	12690
1485	12692
1486	12694
1488	12697
1491	12699
1488	12702
1486	12704
1485	12707
1484	12709
1484	12712
1484	12715
1484	12718
1485	12720
1483	12722
1481	12725
1478	12727
1477	12730
1478	12732
1478	12735
1480	12737
1480	12740
1481	12742
1482	12745
1481	12747
1479	12750
1477	12752
1477	12754
1478	12758
1479	12760
1482	12763
1489	12765
1493	12768
1491	12770
1487	12773
1490	12775
1493	12778
1497	12780
1502	12782
1503	12785
1497	12787
1487	12790
1481	12792
1478	12795
1476	12797
1474	12801
1475	12803
1478	12806
1485	12808
1490	12810
1492	12813
1489	12815
1483	12818
1480	12820
1477	12823
1477	12825
1477	12828
1477	12830
1476	12833
1475	12835
1475	12837
1477	12840
1475	12843
1475	12846
1475	12848
1475	12851
1476	12853
1481	12856
1484	12858
1484	12861
1482	12863
1480	12865
1478	12868
1477	12870
1478	12873
1477	12875
1478	12878
1478	12880
1479	12883
1482	12886
1486	12889
1488	12891
1490	12894
1492	12896
1491	12898
1489	12901
1485	12903
1484	12906
1485	12908
1483	12911
1482	12913
1481	12916
1481	12918
1481	12921
1481	12923
1483	12925
1484	12929
1483	12931
1482	12934
1481	12936
1482	12939
1483	12941
1483	12944
1482	12946
1481	12949
1480	12951
1478	12953
1478	12956
1481	12958
1484	12961
1485	12963
1487	12966
1489	12968
1491	12972
1490	12974
1487	12977
1483	12979
1480	12982
1479	12984
1480	12986
1479	12989
1479	12991
1479	12994
1480	12996
1482	12999
1484	13001
1483	13004
1483	13006
1481	13009
1481	13011
1477	13014
1475	13017
1478	13019
1484	13022
1486	13024
1487	13027
1486	13029
1487	13032
1487	13034
1487	13037
1485	13039
1483	13041
1482	13044
1481	13046
1482	13049
1487	13051
1492	13054
1493	13057
1489	13060
1485	13062
1482	13065
1480	13067
1479	13069
1478	13072
1478	13074
1478	13077
1478	13079
1478	13082
1477	13084
1476	13087
1475	13089
1475	13092
1477	13094
1479	13097
1480	13100
1480	13102
1480	13105
1481	13107
1482	13110
1482	13112
1480	13115
1478	13117
1475	13120
1476	13122
1481	13125
1487	13127
1488	13129
1486	13132
1485	13134
1484	13137
1485	13139
1484	13143
1483	13145
1483	13148
1483	13150
1484	13153
1483	13155
1482	13157
1482	13160
1482	13162
1483	13165
1484	13167
1485	13170
1485	13172
1484	13175
1482	13177
1483	13180
1485	13182
1485	13186
1489	13188
1491	13190
1491	13193
1489	13195
1486	13198
1483	13200
1482	13203
1481	13205
1481	13208
1480	13210
1480	13213
1480	13215
1482	13217
1483	13220
1483	13222
1489	13225
1494	13228
1496	13231
1493	13233
1488	13236
1486	13238
1486	13241
1485	13243
1484	13245
1483	13248
1483	13250
1483	13253
1482	13255
1482	13258
1482	13260
1483	13263
1483	13265
1485	13268
1491	13271
1494	13273
1492	13276
1489	13278
1485	13281
1483	13283
1483	13286
1484	13288
1484	13291
1484	13293
1483	13296
1483	13298
1484	13301
1485	13303
1485	13305
1485	13308
1484	13310
1486	13314
1491	13316
1493	13319
1493	13321
1491	13324
1488	13326
1485	13329
1483	13331
1481	13333
1480	13336
1479	13338
1478	13341
1480	13343
1482	13346
1483	13348
1485	13351
1487	13353
1490	13357
1491	13359
1492	13361
1490	13364
1488	13366
1486	13369
1485	13371
1484	13374
1485	13376
1484	13379
1485	13381
1486	13384
1487	13386
1486	13389
1487	13391
1488	13393
1488	13396
1488	13399
1488	13402
1489	13404
1488	13407
1485	13409
1483	13412
1482	13414
1482	13417
1483	13419
1485	13421
1487	13424
1488	13426
1489	13429
1489	13431
1489	13434
1489	13436
1489	13440
1490	13442
1489	13445
1488	13447
1487	13449
1486	13452
1488	13454
1488	13457
1490	13459
1490	13462
1491	13464
1489	13467
1488	13469
1488	13472
1488	13474
1486	13476
1486	13479
1485	13481
1485	13485
1485	13487
1485	13490
1483	13492
1482	13495
1483	13497
1483	13500
1484	13502
1484	13505
1483	13507
1484	13509
1485	13512
1485	13514
1485	13517
1488	13519
1490	13522
1489	13524
1487	13528
1484	13530
1482	13533
1481	13535
1483	13537
1487	13540
1491	13542
1492	13545
1491	13547
1488	13550
1487	13552
1488	13555
1490	13557
1490	13560
1489	13562
1491	13564
1491	13568
1490	13570
1487	13573
1485	13575
1484	13578
1484	13580
1485	13583
1486	13585
1487	13588
1487	13590
1487	13593
1489	13595
1489	13597
1488	13600
1487	13602
1488	13605
1489	13607
1488	13611
1484	13613
1483	13616
1486	13618
1488	13621
1489	13623
1488	13625
1489	13628
1492	13630
1494	13633
1494	13635
1492	13638
1491	13640
1489	13643
1488	13645
1486	13648
1486	13650
1485	13652
1485	13656
1485	13658
1487	13661
1490	13663
1491	13666
1490	13668
1489	13671
1489	13673
1489	13676
1488	13678
1487	13681
1487	13683
1486	13685
1485	13688
1484	13690
1484	13693
1484	13696
1484	13699
1485	13701
1487	13704
1487	13706
1485	13709
1482	13711
1483	13713
1484	13716
1485	13718
1484	13721
1484	13723
1483	13726
1483	13728
1482	13731
1481	13733
1479	13736
1478	13739
1479	13741
1482	13744
1486	13746
1488	13749
1490	13751
1490	13754
1488	13756
1487	13759
1486	13761
1486	13764
1486	13766
1485	13768
1483	13771
1481	13773
1481	13776
1482	13778
1484	13782
1486	13784
1487	13787
1487	13789
1487	13792
1488	13794
1487	13797
1487	13799
1486	13801
1486	13804
1485	13806
1485	13809
1482	13811
1480	13814
1480	13816
1483	13819
1485	13821
1487	13825
1486	13827
1486	13829
1486	13832
1486	13834
1487	13837
1488	13839
1489	13842
1489	13844
1488	13847
1487	13849
1486	13852
1483	13854
1483	13856
1483	13859
1485	13861
1487	13864
1489	13867
1489	13870
1488	13872
1488	13875
1489	13877
1491	13880
1492	13882
1492	13885
1490	13887
1489	13889
1488	13892
1488	13894
1488	13897
1489	13899
1490	13902
1489	13904
1489	13907
1487	13910
1487	13913
1486	13915
1486	13917
1486	13920
1486	13922
1485	13925
1482	13927
1482	13930
1485	13932
1488	13935
1487	13937
1485	13940
1485	13942
1486	13944
1487	13947
1487	13949
1487	13953
1487	13955
1488	13958
1487	13960
1487	13963
1488	13965
1490	13968
1492	13970
1492	13972
1490	13975
1487	13977
1486	13980
1485	13982
1484	13985
1483	13987
1483	13990
1485	13992
1487	13996
1489	13998
1488	14001
1488	14003
1485	14005
1483	14008
1483	14010
1484	14013
1484	14015
1485	14018
1484	14020
1484	14023
1484	14025
1484	14028
1485	14030
1487	14032
1487	14035
1485	14038
1484	14041
1485	14043
1486	14046
1487	14048
1487	14051
1487	14053
1488	14056
1489	14058
1489	14060
1488	14063
1487	14065
1486	14068
1485	14070
1484	14073
1483	14075
1484	14078
1485	14081
1486	14084
1485	14086
1484	14089
1484	14091
1487	14093
1492	14096
1492	14098
1491	14101
1491	14103
1490	14106
1489	14108
1489	14111
1488	14113
1487	14116
1485	14118
1484	14120
1485	14124
1487	14126
1489	14129
1488	14131
1488	14134
1488	14136
1486	14139
1485	14141
1483	14144
1481	14146
1482	14148
1485	14151
1485	14153
1486	14156
1486	14158
1487	14161
1486	14163
1486	14167
1486	14169
1486	14172
1486	14174
1486	14177
1485	14179
1486	14181
1485	14184
1485	14186
1485	14189
1485	14191
1485	14194
1485	14196
1486	14199
1486	14201
1486	14204
1487	14206
1490	14209
1491	14212
1491	14214
1490	14217
1489	14219
1487	14222
1485	14224
1485	14227
1484	14229
1484	14232
1484	14234
1485	14236
1485	14239
1485	14241
1485	14244
1485	14246
1485	14249
1485	14252
1485	14255
1485	14257
1485	14260
1485	14262
1485	14265
1486	14267
1486	14269
1484	14272
1483	14274
1484	14277
1487	14279
1486	14282
1486	14284
1487	14287
1486	14289
1487	14292
1487	14295
1486	14297
1485	14300
1485	14302
1485	14305
1485	14307
1485	14310
1484	14312
1482	14315
1481	14317
1481	14320
1484	14322
1485	14324
1486	14327
1486	14329
1486	14332
1486	14334
1486	14338
1485	14340
1485	14343
1484	14345
1484	14348
1485	14350
1485	14352
1486	14355
1486	14357
1487	14360
1486	14362
1485	14365
1483	14367
1483	14370
1484	14372
1487	14375
1488	14377
1488	14381
1488	14383
1488	14385
1488	14388
1488	14390
1489	14393
1489	14395
1488	14398
1488	14400
1490	14403
1489	14405
1488	14408
1487	14410
1487	14412
1487	14415
1487	14417
1487	14420
1487	14423
1487	14426
1487	14428
1487	14431
1486	14433
1485	14436
1485	14438
1485	14440
1485	14443
1485	14445
1484	14448
1482	14450
1481	14453
1480	14455
1480	14458
1480	14460
1482	14464
1486	14466
1488	14469
1489	14471
1488	14473
1488	14476
1489	14478
1490	14481
1490	14483
1489	14486
1488	14488
1487	14491
1485	14493
1484	14496
1483	14498
1482	14500
1482	14503
1481	14505
1481	14509
1480	14511
1480	14514
1481	14516
1481	14519
1481	14521
1480	14524
1480	14526
1480	14528
1480	14531
1480	14533
1481	14536
1481	14538
1480	14541
1481	14543
1481	14546
1481	14548
1481	14552
1481	14554
1481	14556
1480	14559
1480	14561
1480	14564
1480	14566
1481	14569
1482	14571
1482	14574
1482	14576
1481	14579
1481	14581
1482	14584
1482	14586
1482	14588
1481	14592
1480	14594
1479	14597
1478	14599
1477	14602
1477	14604
1478	14607
1478	14609
1479	14612
1479	14614
1479	14616
1478	14619
1477	14621
1477	14624
1478	14626
1478	14629
1479	14631
1479	14635
1480	14637
1480	14640
1481	14642
1481	14644
1481	14647
1481	14649
1482	14652
1483	14654
1485	14657
1484	14659
1481	14662
1480	14664
1480	14667
1480	14669
1480	14672
1480	14674
1481	14676
1480	14680
1479	14682
1479	14685
1479	14687
1479	14690
1479	14692
1478	14695
1478	14697
1478	14700
1478	14702
1478	14704
1478	14707
1478	14709
1478	14712
1478	14714
1479	14717
1479	14720
1480	14723
1480	14725
1480	14728
1481	14730
1481	14732
1482	14735
1483	14737
1482	14740
1482	14742
1483	14745
1484	14747
1484	14750
1483	14752
1479	14755
1477	14757
1476	14760
1478	14763
1479	14765
1480	14768
1482	14770
1483	14773
1483	14775
1483	14778
1483	14780
1483	14783
1483	14785
1483	14788
1483	14790
1483	14792
1483	14795
1483	14797
1482	14800
1482	14802
1483	14806
1485	14808
1486	14811
1486	14813
1486	14816
1485	14818
1483	14820
1482	14823
1481	14825
1481	14828
1481	14830
1481	14833
1481	14835
1481	14838
1480	14840
1481	14843
1483	14845
1483	14848
1484	14851
1485	14853
1484	14856
1484	14858
1484	14861
1483	14863
1483	14866
1483	14868
1482	14871
1483	14873
1483	14876
1484	14878
1484	14880
1484	14883
1484	14885
1485	14888
1485	14891
1484	14894
1485	14896
1485	14899
1485	14901
1484	14904
1483	14906
1483	14908
1482	14911
1482	14913
1483	14916
1483	14918
1482	14921
1482	14923
1483	14926
1483	14928
1482	14931
1481	14934
1481	14936
1482	14939
1481	14941
1479	14944
1479	14946
1480	14949
1481	14951
1482	14954
1483	14956
1483	14959
1482	14961
1481	14964
1483	14966
1483	14968
1484	14971
1485	14973
1485	14977
1485	14979
1485	14982
1485	14984
1486	14987
1486	14989
1485	14992
1485	14994
1484	14996
1484	14999
1484	15001
1483	15004
1482	15006
1482	15009
1482	15011
1483	15014
1484	15016
1485	15020
1486	15022
1486	15024
1487	15027
1487	15029
1486	15032
1485	15034
1484	15037
1483	15039
1483	15042
1485	15044
1486	15047
1487	15049
1487	15052
1487	15054
1486	15056
1486	15059
1485	15062
1485	15065
1485	15067
1485	15070
1485	15072
1484	15075
1483	15077
1483	15080
1483	15082
1481	15084
1480	15087
1481	15089
1482	15092
1483	15094
1484	15097
1484	15099
1484	15102
1484	15105
1484	15108
1483	15110
1483	15112
1482	15115
1483	15117
1483	15120
1484	15122
1484	15125
1485	15127
1486	15130
1486	15132
1487	15135
1487	15137
1487	15139
1486	15142
1485	15144
1483	15148
1483	15150
1483	15153
1483	15155
1483	15158
1484	15160
1485	15163
1486	15165
1486	15168
1486	15170
1487	15172
1487	15175
1486	15177
1486	15180
1486	15182
1486	15185
1487	15187
1487	15191
1486	15193
1486	15196
1485	15198
1485	15200
1486	15203
1487	15205
1486	15208
1486	15210
1485	15213
1483	15215
1482	15218
1484	15220
1486	15223
1488	15225
1488	15227
1487	15230
1488	15233
1488	15236
1489	15238
1489	15241
1488	15243
1487	15246
1487	15248
1486	15251
1487	15253
1487	15256
1489	15258
1491	15260
1490	15263
1489	15265
1488	15268
1487	15270
1487	15273
1489	15276
1490	15279
1491	15281
1491	15284
1490	15286
1489	15288
1488	15291
1488	15293
1488	15296
1487	15298
1487	15301
1487	15303
1487	15306
1488	15308
1487	15311
1488	15313
1488	15315
1489	15319
1489	15321
1488	15324
1485	15326
1483	15329
1483	15331
1486	15334
1488	15336
1488	15339
1488	15341
1487	15344
1487	15346
1487	15348
1487	15351
1488	15353
1488	15356
1489	15358
1489	15362
1487	15364
1486	15367
1486	15369
1487	15372
1488	15374
1487	15376
1487	15379
1487	15381
1487	15384
1487	15386
1486	15389
1486	15391
1486	15394
1486	15396
1487	15399
1486	15401
1485	15404
1485	15407
1484	15409
1484	15412
1484	15414
1484	15417
1483	15419
1483	15422
1483	15424
1484	15427
1485	15429
1486	15432
1486	15434
1485	15436
1485	15439
1486	15441
1485	15444
1484	15447
1484	15450
1484	15452
1484	15455
1484	15457
1485	15460
1487	15462
1488	15464
1487	15467
1487	15469
1486	15472
1486	15474
1485	15477
1484	15479
1483	15482
1482	15484
1483	15488
1483	15490
1483	15492
1483	15495
1483	15497
1483	15500
1483	15502
1483	15505
1483	15507
1483	15510
1483	15512
1483	15515
1484	15517
1485	15520
1486	15522
1486	15524
1486	15527
1487	15529
1487	15533
1487	15535
1487	15538
1486	15540
1487	15543
1486	15545
1486	15548
1486	15550
1486	15552
1486	15555
1485	15557
1485	15560
1485	15562
1485	15565
1486	15567
1487	15570
1487	15572
1487	15576
1486	15578
1485	15580
1484	15583
1484	15585
1484	15588
1485	15590
1486	15593
1486	15595
1486	15598
1485	15600
1485	15603
1486	15605
1488	15607
1488	15610
1488	15612
1487	15616
1487	15618
1487	15621
1488	15623
1488	15626
1489	15628
1488	15631
1488	15633
1488	15636
1488	15638
1488	15640
1488	15643
1488	15645
1488	15648
1487	15650
1488	15653
1488	15655
1488	15659
1489	15661
1489	15664
1488	15666
1488	15668
1487	15671
1487	15673
1486	15676
1486	15678
1486	15681
1487	15683
1488	15686
1489	15688
1489	15691
1489	15693
1488	15695
1488	15698
1487	15700
1487	15704
1487	15706
1487	15709
1487	15711
1486	15714
1485	15716
1485	15719
1485	15721
1485	15724
1485	15726
1484	15728
1484	15731
1484	15733
1484	15736
1484	15738
1483	15741
1482	15744
1481	15747
1481	15749
1482	15752
1482	15754
1483	15756
1483	15759
1484	15761
1486	15764
1486	15766
1486	15769
1485	15771
1485	15774
1484	15776
1484	15779
1484	15781
1484	15783
1485	15787
1485	15789
1485	15792
1485	15794
1484	15797
1483	15799
1481	15802
1481	15804
1480	15807
1480	15809
1480	15811
1480	15814
1481	15816
1481	15819
1483	15821
1483	15824
1482	15826
1481	15830
1480	15832
1481	15835
1482	15837
1481	15840
1480	15842
1479	15844
1479	15847
1478	15849
1479	15852
1481	15854
1481	15857
1482	15859
1483	15862
1484	15864
1486	15867
1486	15869
1486	15872
1486	15875
1486	15877
1486	15880
1486	15882
1486	15885
1487	15887
1487	15890
1488	15892
1488	15895
1487	15897
1486	15899
1485	15902
1485	15904
1485	15907
1484	15909
1484	15912
1486	15915
1487	15918
1487	15920
1488	15923
1490	15925
1489	15928
1488	15930
1486	15932
1486	15935
1485	15937
1485	15940
1486	15942
1486	15945
1485	15947
1484	15950
1483	15952
1482	15955
1482	15958
1483	15960
1484	15963
1485	15965
1485	15968
1485	15970
1485	15973
1486	15975
1485	15978
1485	15980
1485	15983
1486	15985
1487	15987
1488	15990
1489	15992
1490	15995
1491	15997
1491	16001
1488	16003
1486	16006
1485	16008
1488	16011
1490	16013
1490	16015
1492	16018
1494	16020
1496	16023
1495	16025
1495	16028
1493	16030
1492	16033
1491	16035
1491	16038
1491	16040
1491	16044
1490	16046
1488	16048
1487	16051
1488	16053
1490	16056
1491	16058
1491	16061
1491	16063
1490	16066
1491	16068
1491	16071
1490	16073
1488	16075
1488	16078
1490	16080
1491	16083
1492	16086
1493	16089
1492	16091
1491	16094
1491	16096
1491	16099
1494	16101
1495	16103
1496	16106
1496	16108
1494	16111
1492	16113
1491	16116
1491	16118
1490	16121
1490	16123
1490	16126
1489	16129
1489	16131
1489	16134
1489	16136
1487	16139
1485	16141
1485	16144
1487	16146
1486	16149
1486	16151
1486	16154
1483	16156
1482	16159
1484	16161
1488	16163
1491	16166
1492	16168
1492	16172
1493	16174
1494	16177
1495	16179
1495	16182
1495	16184
1494	16187
1493	16189
1492	16191
1492	16194
1493	16196
1495	16199
1496	16201
1496	16204
1497	16206
1497	16209
1496	16211
1494	16215
1492	16217
1489	16219
1489	16222
1490	16224
1492	16227
1492	16229
1492	16232
1490	16234
1490	16237
1492	16239
1491	16242
1491	16244
