1486	2
1487	5
1488	7
1488	9
1487	11
1486	14
1486	16
1486	18
1486	21
1486	23
1486	25
1485	27
1485	30
1486	32
1486	34
1486	37
1487	39
1488	41
1489	45
1489	47
1488	49
1488	51
1488	54
1488	56
1488	58
1488	61
1487	63
1486	65
1485	68
1484	70
1485	72
1486	75
1488	77
1488	79
1489	81
1489	84
1489	87
1489	89
1488	92
1488	94
1488	96
1488	99
1489	101
1488	103
1488	106
1487	108
1486	110
1486	113
1486	115
1486	117
1486	120
1486	122
1486	124
1486	128
1487	130
1487	132
1486	135
1485	137
1484	140
1485	142
1486	144
1487	147
1487	149
1487	151
1487	154
1487	156
1487	158
1488	161
1489	163
1489	165
1490	168
1490	171
1489	173
1489	176
1489	178
1489	181
1489	183
1488	185
1488	188
1487	190
1487	192
1487	195
1488	197
1488	199
1488	202
1487	204
1487	206
1487	209
1486	211
1485	215
1485	217
1484	219
1484	222
1483	224
1484	226
1485	229
1486	231
1486	233
1486	236
1486	238
1486	240
1486	243
1487	245
1487	247
1488	250
1488	252
1488	256
1488	258
1488	260
1487	263
1487	265
1487	267
1487	270
1487	272
1487	274
1486	277
1486	279
1486	281
1486	284
1487	286
1488	288
1489	291
1489	293
1490	296
1490	299
1490	301
1490	304
1490	306
1490	308
1490	311
1491	313
1491	315
1491	318
1491	320
1492	322
1492	325
1492	327
1491	330
1491	332
1490	334
1489	337
1489	339
1488	342
1487	345
1487	347
1487	349
1487	352
1487	354
1487	356
1486	359
1487	361
1488	363
1489	366
1488	368
1487	371
1487	373
1486	375
1487	378
1487	380
1487	382
1488	386
1488	388
1489	390
1488	393
1488	395
1488	397
1488	400
1489	402
1490	404
1490	407
1489	409
1488	412
1488	414
1488	416
1487	419
1486	421
1486	423
1486	427
1487	429
1487	431
1487	434
1487	436
1486	438
1486	441
1485	443
1485	446
1485	448
1485	450
1485	453
1486	455
1485	457
1485	460
1484	462
1484	464
1483	467
1485	470
1485	472
1485	475
1485	477
1485	479
1485	482
1486	484
1486	487
1486	489
1486	491
1485	494
1485	496
1485	498
1485	501
1486	503
1486	505
1486	508
1486	510
1487	513
1487	516
1487	518
1486	520
1485	523
1485	525
1485	528
1486	530
1487	532
1488	535
1487	537
1487	539
1486	542
1485	544
1485	546
1485	549
1485	551
1486	553
1487	557
1486	559
1486	562
1486	564
1486	566
1487	569
1487	571
1486	573
1486	576
1486	578
1487	580
1487	583
1486	585
1485	587
1485	590
1485	592
1484	594
1484	598
1484	600
1484	603
1484	605
1484	607
1484	610
1485	612
1486	614
1487	617
1486	619
1486	621
1486	624
1486	626
1485	628
1485	631
1486	633
1486	635
1487	638
1487	641
1487	644
1487	646
1487	648
1488	651
1489	653
1489	655
1490	658
1490	660
1489	662
1488	665
1488	667
1488	669
1488	672
1488	674
1488	677
1488	679
1488	681
1487	685
1487	687
1487	689
1487	692
1486	694
1485	696
1485	699
1485	701
1486	703
1487	706
1487	708
1486	710
1486	713
1485	715
1485	718
1485	720
1486	722
1486	726
1487	728
1487	730
1488	733
1487	735
1487	737
1486	740
1486	742
1485	744
1484	747
1484	749
1484	751
1485	754
1486	756
1488	759
1489	761
1490	763
1489	766
1490	769
1490	771
1490	774
1490	776
1490	778
1490	781
1489	783
1489	785
1490	788
1490	790
1489	793
1489	795
1489	797
1488	800
1488	802
1488	804
1487	807
1486	809
1485	812
1485	815
1486	817
1486	819
1487	822
1487	824
1487	826
1487	829
1487	831
1487	834
1486	836
1486	838
1485	841
1486	843
1488	845
1488	848
1489	850
1489	852
1489	856
1489	858
1488	860
1488	863
1487	865
1487	867
1486	870
1486	872
1486	875
1486	877
1485	879
1485	882
1485	884
1486	886
1486	889
1486	891
1487	893
1488	897
1487	899
1487	901
1486	904
1486	906
1486	909
1486	911
1486	913
1487	916
1488	918
1489	920
1489	923
1490	925
1490	927
1490	930
1489	932
1488	934
1488	937
1489	940
1489	942
1490	945
1490	947
1490	950
1489	952
1489	954
1489	957
1489	959
1490	961
1489	964
1489	966
1489	968
1490	971
1491	973
1492	975
1492	978
1492	980
1492	983
1491	986
1491	988
1490	991
1490	993
1489	995
1488	998
1488	1000
1487	1002
1487	1005
1487	1007
1487	1010
1488	1012
1488	1014
1488	1017
1488	1019
1489	1022
1489	1025
1489	1027
1489	1030
1488	1032
1488	1035
1487	1037
1488	1039
1489	1042
1489	1044
1489	1047
1490	1049
1490	1051
1490	1054
1490	1056
1490	1059
1490	1061
1489	1063
1489	1067
1489	1069
1489	1072
1489	1074
1489	1077
1489	1079
1490	1081
1490	1084
1489	1086
1489	1089
1488	1091
1488	1093
1489	1096
1490	1098
1490	1101
1490	1103
1490	1105
1491	1108
1491	1111
1491	1114
1492	1116
1492	1118
1491	1121
1491	1123
1490	1126
1489	1128
1489	1130
1488	1133
1488	1135
1488	1138
1488	1140
1489	1142
1489	1145
1489	1147
1489	1150
1489	1153
1489	1155
1489	1158
1488	1160
1488	1163
1488	1165
1487	1168
1487	1170
1486	1172
1486	1175
1487	1177
1488	1180
1489	1182
1490	1184
1489	1187
1489	1189
1489	1192
1489	1195
1489	1197
1488	1200
1487	1202
1488	1205
1488	1207
1488	1209
1488	1212
1488	1214
1488	1217
1488	1219
1488	1221
1488	1224
1489	1226
1490	1229
1490	1231
1491	1233
1491	1236
1492	1239
1492	1242
1492	1244
1491	1246
1490	1249
1489	1251
1490	1254
1490	1256
1490	1258
1490	1261
1489	1263
1489	1266
1489	1268
1490	1271
1490	1273
1489	1275
1489	1278
1489	1281
1489	1284
1489	1286
1490	1288
1490	1291
1490	1293
1491	1296
1490	1298
1489	1300
1487	1303
1487	1305
1488	1308
1489	1310
1489	1312
1489	1315
1489	1317
1490	1320
1489	1323
1489	1325
1488	1328
1488	1330
1488	1333
1487	1335
1486	1337
1487	1340
1488	1342
1488	1345
1488	1347
1489	1349
1490	1352
1491	1354
1490	1357
1490	1359
1488	1361
1487	1364
1487	1367
1487	1370
1487	1372
1487	1375
1485	1377
1484	1379
1483	1382
1484	1384
1485	1387
1485	1389
1486	1391
1486	1394
1486	1396
1486	1399
1486	1401
1486	1403
1486	1406
1487	1409
1488	1412
1488	1414
1487	1416
1486	1419
1485	1421
1485	1424
1486	1426
1486	1428
1486	1431
1486	1433
1485	1436
1484	1438
1484	1440
1486	1443
1487	1445
1487	1448
1487	1451
1487	1453
1487	1456
1487	1458
1488	1461
1489	1463
1490	1465
1490	1468
1490	1470
1489	1473
1488	1475
1486	1477
1485	1480
1485	1482
1487	1485
1489	1487
1489	1490
1490	1492
1490	1495
1489	1498
1489	1500
1489	1503
1488	1505
1488	1507
1487	1510
1486	1512
1487	1515
1488	1517
1488	1519
1488	1522
1489	1524
1489	1527
1489	1529
1488	1531
1488	1534
1487	1537
1486	1540
1486	1542
1486	1544
1487	1547
1486	1549
1486	1552
1486	1554
1487	1556
1487	1559
1486	1561
1485	1564
1485	1566
1485	1568
1487	1571
1489	1573
1489	1576
1488	1579
1487	1582
1486	1584
1486	1586
1485	1589
1485	1591
1485	1594
1486	1596
1487	1598
1487	1601
1488	1603
1488	1606
1488	1608
1488	1610
1487	1613
1487	1615
1486	1618
1485	1620
1485	1623
1484	1626
1485	1628
1485	1631
1485	1633
1486	1635
1486	1638
1487	1640
1486	1643
1484	1645
1481	1647
1480	1650
1483	1652
1485	1655
1488	1657
1489	1659
1490	1662
1490	1665
1490	1668
1490	1670
1490	1672
1489	1675
1488	1677
1489	1680
1490	1682
1490	1684
1491	1687
1491	1689
1491	1692
1491	1694
1490	1696
1489	1699
1488	1701
1487	1704
1487	1707
1488	1710
1489	1712
1490	1714
1491	1717
1491	1719
1491	1722
1490	1724
1488	1726
1487	1729
1486	1731
1486	1734
1488	1736
1490	1738
1492	1741
1492	1743
1492	1746
1492	1748
1491	1751
1491	1754
1492	1756
1492	1759
1493	1761
1493	1763
1492	1766
1492	1768
1493	1771
1494	1773
1494	1775
1493	1778
1493	1780
1493	1783
1493	1785
1493	1787
1492	1790
1491	1793
1490	1796
1490	1798
1493	1801
1494	1803
1495	1805
1495	1808
1495	1810
1494	1813
1494	1815
1493	1817
1493	1820
1493	1822
1492	1825
1490	1827
1489	1829
1488	1832
1489	1835
1490	1838
1491	1840
1490	1842
1489	1845
1489	1847
1489	1850
1491	1852
1492	1854
1492	1857
1493	1859
1493	1862
1494	1864
1496	1866
1496	1869
1496	1871
1496	1874
1496	1876
1496	1879
1496	1882
1495	1884
1494	1887
1493	1889
1493	1892
1492	1894
1491	1896
1490	1899
1489	1901
1489	1904
1489	1906
1488	1908
1487	1911
1487	1913
1488	1916
1489	1918
1489	1921
1490	1924
1490	1926
1489	1929
1489	1931
1490	1933
1490	1936
1491	1938
1493	1941
1494	1943
1495	1945
1494	1948
1494	1950
1495	1953
1495	1955
1496	1957
1497	1960
1497	1963
1497	1966
1495	1968
1494	1970
1494	1973
1493	1975
1492	1978
1491	1980
1490	1983
1490	1985
1489	1987
1488	1990
1488	1992
1488	1995
1488	1997
1487	1999
1487	2002
1487	2004
1488	2008
1489	2010
1488	2012
1488	2015
1488	2017
1489	2020
1489	2022
1490	2024
1491	2027
1492	2029
1493	2032
1493	2034
1493	2036
1493	2039
1492	2041
1492	2044
1491	2046
1490	2049
1489	2052
1488	2054
1489	2057
1489	2059
1489	2061
1489	2064
1489	2066
1488	2069
1487	2071
1484	2074
1482	2076
1480	2078
1479	2081
1479	2083
1481	2086
1482	2088
1483	2091
1483	2094
1485	2096
1486	2099
1487	2101
1488	2103
1488	2106
1488	2108
1488	2111
1487	2113
1486	2115
1483	2118
1483	2120
1484	2123
1485	2125
1486	2127
1487	2130
1487	2132
1487	2136
1487	2138
1487	2140
1486	2143
1485	2145
1484	2148
1484	2150
1485	2152
1486	2155
1486	2157
1485	2160
1485	2162
1486	2164
1486	2167
1485	2169
1483	2172
1480	2174
1478	2178
1477	2180
1480	2182
1483	2185
1485	2187
1487	2190
1488	2192
1488	2194
1489	2197
1489	2199
1489	2202
1488	2204
1487	2206
1486	2209
1486	2211
1487	2214
1488	2216
1489	2219
1489	2222
1489	2224
1490	2227
1490	2229
1490	2231
1489	2234
1486	2236
1483	2239
1480	2241
1480	2243
1482	2246
1485	2248
1487	2251
1489	2253
1490	2256
1491	2258
1492	2260
1493	2264
1493	2266
1493	2269
1493	2271
1493	2273
1493	2276
1493	2278
1493	2281
1494	2283
1493	2285
1491	2288
1488	2290
1487	2293
1487	2295
1486	2297
1486	2300
1485	2302
1485	2306
1485	2308
1486	2310
1488	2313
1489	2315
1490	2318
1491	2320
1492	2322
1493	2325
1493	2327
1491	2330
1489	2332
1487	2334
1489	2337
1491	2339
1492	2342
1493	2344
1494	2348
1496	2350
1497	2352
1497	2355
1497	2357
1496	2360
1495	2362
1494	2364
1493	2367
1492	2369
1492	2372
1493	2374
1494	2376
1495	2379
1496	2381
1495	2384
1495	2386
1495	2388
1493	2392
1491	2394
1491	2397
1493	2399
1494	2401
1495	2404
1495	2406
1494	2409
1493	2411
1491	2413
1489	2416
1488	2418
1486	2421
1485	2423
1485	2426
1486	2428
1489	2430
1491	2434
1492	2436
1492	2439
1493	2441
1493	2443
1492	2446
1492	2448
1491	2451
1490	2453
1489	2455
1489	2458
1489	2460
1488	2463
1488	2465
1487	2467
1486	2470
1486	2472
1485	2476
1484	2478
1483	2480
1483	2483
1484	2485
1484	2488
1485	2490
1486	2492
1487	2495
1487	2497
1486	2500
1485	2502
1484	2504
1484	2507
1485	2509
1486	2512
1487	2514
1487	2518
1486	2520
1485	2522
1485	2525
1486	2527
1486	2530
1486	2532
1485	2534
1483	2537
1481	2539
1482	2542
1483	2544
1484	2546
1484	2549
1482	2551
1481	2554
1480	2556
1481	2558
1483	2562
1484	2564
1483	2567
1482	2569
1480	2571
1479	2574
1480	2576
1481	2579
1482	2581
1482	2583
1482	2586
1482	2588
1482	2591
1482	2593
1481	2595
1482	2598
1483	2600
1483	2604
1484	2606
1486	2609
1488	2611
1489	2613
1488	2616
1486	2618
1485	2621
1484	2623
1483	2625
1481	2628
1482	2630
1484	2633
1485	2635
1485	2637
1485	2640
1485	2642
1483	2646
1482	2648
1482	2650
1483	2653
1483	2655
1483	2658
1482	2660
1481	2662
1482	2665
1483	2667
1482	2670
1483	2672
1482	2674
1480	2677
1478	2679
1477	2682
1480	2684
1481	2686
1482	2690
1482	2692
1482	2695
1482	2697
1481	2699
1483	2702
1483	2704
1483	2707
1483	2709
1483	2712
1482	2714
1482	2716
1484	2719
1484	2721
1484	2724
1484	2726
1484	2728
1482	2732
1481	2734
1481	2737
1482	2739
1484	2741
1485	2744
1485	2746
1485	2749
1485	2751
1485	2753
1483	2756
1482	2758
1480	2761
1480	2763
1481	2765
1482	2768
1483	2770
1484	2774
1485	2776
1485	2778
1485	2781
1485	2783
1484	2786
1484	2788
1484	2790
1484	2793
1484	2795
1483	2798
1482	2800
1482	2802
1482	2805
1483	2807
1484	2810
1485	2812
1486	2816
1487	2818
1486	2820
1486	2823
1484	2825
1484	2828
1484	2830
1485	2832
1485	2835
1485	2837
1485	2840
1485	2842
1485	2844
1484	2847
1484	2849
1484	2852
1485	2854
1485	2856
1485	2860
1485	2862
1485	2865
1485	2867
1483	2869
1482	2872
1481	2874
1481	2877
1481	2879
1480	2881
1479	2884
1480	2886
1482	2889
1484	2891
1486	2893
1487	2896
1487	2898
1487	2902
1487	2904
1485	2907
1484	2909
1482	2911
1482	2914
1482	2916
1483	2919
1485	2921
1486	2923
1486	2926
1486	2928
1487	2931
1487	2933
1487	2935
1487	2938
1486	2940
1486	2944
1485	2946
1485	2948
1485	2951
1485	2953
1486	2956
1486	2958
1486	2960
1486	2963
1486	2965
1486	2968
1486	2970
1486	2972
1486	2975
1486	2977
1487	2980
1487	2982
1487	2984
1488	2988
1487	2990
1486	2993
1486	2995
1486	2997
1487	3000
1487	3002
1487	3005
1488	3007
1488	3010
1488	3012
1487	3014
1486	3017
1485	3019
1485	3022
1484	3024
1485	3026
1486	3030
1486	3032
1486	3035
1486	3037
1487	3039
1487	3042
1488	3044
1489	3047
1489	3049
1488	3051
1488	3054
1488	3056
1489	3059
1488	3061
1487	3063
1488	3066
1489	3068
1490	3072
1491	3074
1490	3076
1488	3079
1488	3081
1490	3084
1492	3086
1493	3089
1493	3091
1492	3093
1491	3096
1489	3098
1489	3101
1489	3103
1491	3105
1491	3108
1490	3110
1490	3113
1490	3116
1491	3118
1490	3121
1489	3123
1488	3126
1487	3128
1487	3130
1487	3133
1488	3135
1488	3138
1488	3140
1489	3142
1490	3145
1491	3147
1491	3150
1491	3152
1491	3155
1492	3158
1492	3160
1492	3163
1491	3165
1489	3168
1487	3170
1488	3172
1489	3175
1489	3177
1488	3180
1488	3182
1489	3184
1490	3187
1491	3189
1490	3192
1489	3194
1488	3196
1488	3200
1489	3202
1489	3205
1490	3207
1490	3209
1490	3212
1490	3214
1489	3217
1488	3219
1487	3221
1487	3224
1485	3226
1484	3229
1485	3231
1487	3234
1488	3236
1490	3238
1490	3241
1490	3244
1490	3247
1489	3249
1489	3251
1491	3254
1493	3256
1492	3259
1491	3261
1489	3263
1488	3266
1487	3268
1487	3271
1487	3273
1487	3275
1486	3278
1485	3280
1485	3283
1486	3286
1488	3288
1489	3291
1490	3293
1490	3296
1489	3298
1489	3300
1487	3303
1486	3305
1486	3308
1487	3310
1487	3312
1487	3315
1487	3317
1489	3320
1489	3322
1488	3324
1488	3328
1488	3330
1488	3333
1488	3335
1488	3338
1489	3340
1488	3342
1488	3345
1488	3347
1488	3350
1490	3352
1490	3354
1490	3357
1488	3359
1487	3362
1487	3364
1486	3366
1485	3369
1482	3372
1481	3375
1480	3377
1481	3379
1482	3382
1482	3384
1483	3387
1483	3389
1484	3391
1485	3394
1485	3396
1485	3399
1485	3401
1485	3403
1486	3406
1486	3408
1485	3411
1485	3414
1485	3416
1485	3419
1485	3421
1485	3424
1485	3426
1485	3429
1485	3431
1484	3433
1483	3436
1483	3438
1483	3441
1485	3443
1486	3445
1486	3448
1485	3450
1484	3453
1483	3456
1482	3458
1482	3461
1483	3463
1485	3466
1486	3468
1487	3470
1486	3473
1486	3475
1486	3478
1485	3480
1485	3482
1484	3485
1483	3487
1484	3490
1485	3492
1484	3494
1482	3497
1479	3500
1477	3503
1478	3505
1481	3507
1484	3510
1486	3512
1485	3515
1483	3517
1483	3520
1483	3522
1485	3524
1486	3527
1486	3529
1486	3532
1486	3534
1486	3536
1487	3539
1488	3542
1489	3545
1489	3547
1490	3549
1490	3552
1490	3554
1488	3557
1488	3559
1487	3561
1487	3564
1486	3566
1486	3569
1486	3571
1486	3573
1486	3576
1486	3578
1485	3581
1486	3584
1488	3586
1489	3589
1490	3591
1490	3594
1491	3596
1491	3599
1490	3601
1490	3603
1490	3606
1490	3608
1489	3611
1489	3613
1489	3615
1489	3618
1489	3620
1489	3623
1489	3625
1487	3628
1485	3631
1485	3633
1486	3636
1487	3638
1487	3640
1486	3643
1486	3645
1486	3648
1487	3650
1488	3652
1489	3655
1489	3657
1488	3660
1487	3662
1487	3664
1487	3667
1487	3670
1487	3673
1488	3675
1488	3678
1487	3680
1486	3682
1486	3685
1486	3687
1486	3690
1487	3692
1488	3694
1488	3697
1488	3699
1486	3702
1485	3704
1486	3706
1488	3709
1489	3712
1488	3715
1488	3717
1489	3719
1489	3722
1489	3724
1490	3727
1490	3729
1490	3731
1491	3734
1490	3736
1490	3739
1489	3741
1488	3743
1488	3746
1489	3748
1489	3751
1489	3753
1489	3756
1489	3759
1490	3761
1491	3764
1492	3766
1491	3769
1491	3771
1490	3773
1489	3776
1488	3778
1489	3781
1491	3783
1493	3785
1494	3788
1494	3790
1494	3793
1494	3795
1493	3798
1492	3801
1492	3803
1492	3806
1491	3808
1490	3810
1488	3813
1488	3815
1488	3818
1490	3820
1491	3822
1490	3825
1490	3827
1489	3830
1487	3832
1485	3835
1484	3837
1486	3840
1489	3843
1490	3845
1491	3848
1491	3850
1490	3852
1489	3855
1489	3857
1489	3860
1489	3862
1489	3864
1489	3867
1488	3869
1488	3872
1488	3874
1489	3876
1490	3879
1491	3881
1492	3885
1491	3887
1490	3889
1490	3892
1491	3894
1491	3897
1492	3899
1492	3901
1492	3904
1491	3906
1492	3909
1492	3911
1492	3913
1492	3916
1491	3918
1490	3921
1489	3923
1488	3927
1489	3929
1491	3931
1493	3934
1493	3936
1492	3939
1491	3941
1491	3943
1491	3946
1490	3948
1490	3951
1488	3953
1487	3955
1486	3958
1486	3960
1486	3963
1486	3965
1487	3968
1489	3971
1490	3973
1490	3976
1490	3978
1491	3980
1491	3983
1491	3985
1490	3988
1489	3990
1488	3992
1487	3995
1488	3997
1488	4000
1487	4002
1487	4004
1488	4007
1489	4009
1490	4013
1490	4015
1490	4018
1489	4020
1488	4022
1488	4025
1489	4027
1490	4030
1492	4032
1493	4034
1494	4037
1494	4039
1495	4042
1496	4044
1495	4046
1495	4049
1495	4051
1494	4055
1493	4057
1491	4059
1490	4062
1489	4064
1488	4067
1488	4069
1487	4071
1486	4074
1486	4076
1487	4079
1488	4081
1490	4083
1491	4086
1491	4088
1490	4091
1488	4093
1488	4096
1488	4099
1488	4101
1487	4104
1486	4106
1486	4109
1488	4111
1489	4113
1490	4116
1490	4118
1490	4121
1489	4123
1487	4125
1486	4128
1486	4130
1484	4133
1483	4135
1483	4137
1485	4141
1488	4143
1489	4146
1490	4148
1490	4150
1490	4153
1490	4155
1490	4158
1490	4160
1489	4162
1489	4165
1489	4167
1489	4170
1490	4172
1491	4174
1491	4177
1491	4179
1492	4183
1492	4185
1493	4187
1493	4190
1492	4192
1491	4195
1491	4197
1492	4200
1493	4202
1493	4204
1493	4207
1493	4209
1492	4212
1492	4214
1492	4216
1491	4219
1490	4221
1490	4225
1490	4227
1491	4229
1490	4232
1490	4234
1490	4237
1490	4239
1490	4241
1490	4244
1488	4246
1488	4249
1486	4251
1486	4253
1486	4256
1486	4258
1486	4261
1487	4263
1488	4265
1488	4269
1488	4271
1488	4274
1489	4276
1490	4279
1491	4281
1490	4283
1489	4286
1489	4288
1490	4291
1491	4293
1491	4295
1491	4298
1490	4300
1489	4303
1488	4305
1487	4307
1487	4311
1488	4313
1488	4316
1487	4318
1487	4320
1487	4323
1488	4325
1489	4328
1488	4330
1487	4332
1486	4335
1487	4337
1488	4340
1490	4342
1491	4344
1491	4347
1490	4349
1489	4353
1489	4355
1490	4358
1491	4360
1491	4362
1490	4365
1489	4367
1491	4370
1492	4372
1492	4374
1493	4377
1491	4379
1490	4382
1489	4384
1489	4386
1489	4389
1490	4391
1490	4395
1489	4397
1488	4399
1487	4402
1488	4404
1488	4407
1488	4409
1488	4411
1489	4414
1489	4416
1489	4419
1488	4421
1487	4423
1487	4426
1486	4428
1487	4431
1488	4433
1489	4436
1490	4439
1490	4441
1490	4444
1490	4446
1489	4449
1488	4451
1488	4453
1489	4456
1487	4458
1487	4461
1487	4463
1488	4465
1489	4468
1489	4470
1489	4473
1489	4475
1490	4477
1492	4481
1492	4483
1491	4486
1491	4488
1492	4490
1493	4493
1495	4495
1495	4498
1495	4500
1495	4502
1494	4505
1492	4507
1491	4510
1489	4512
1490	4514
1493	4517
1494	4519
1494	4523
1493	4525
1492	4528
1491	4530
1490	4532
1489	4535
1489	4537
1490	4540
1492	4542
1492	4544
1491	4547
1491	4549
1493	4552
1495	4554
1495	4556
1494	4559
1494	4561
1493	4564
1493	4567
1494	4569
1494	4572
1493	4574
1492	4577
1492	4579
1492	4581
1492	4584
1490	4586
1488	4589
1486	4591
1487	4594
1488	4596
1489	4598
1488	4601
1486	4603
1484	4606
1483	4609
1481	4611
1482	4614
1485	4616
1488	4619
1489	4621
1489	4623
1488	4626
1488	4628
1488	4631
1489	4633
1491	4635
1491	4638
1489	4640
1486	4643
1485	4645
1486	4647
1487	4651
1489	4653
1490	4656
1490	4658
1489	4660
1488	4663
1488	4665
1487	4668
1487	4670
1486	4673
1485	4675
1483	4677
1482	4680
1482	4682
1482	4685
1482	4687
1482	4689
1481	4692
1480	4695
1480	4698
1481	4700
1482	4702
1482	4705
1483	4707
1483	4710
1483	4712
1483	4714
1482	4717
1481	4719
1481	4722
1484	4724
1485	4726
1486	4729
1487	4731
1488	4734
1490	4737
1491	4739
1491	4742
1491	4744
1491	4747
1489	4749
1488	4752
1488	4754
1488	4756
1487	4759
1485	4761
1481	4764
1479	4766
1479	4768
1483	4771
1486	4773
1487	4776
1486	4779
1485	4781
1486	4784
1485	4786
1485	4789
1487	4791
1489	4793
1489	4796
1490	4798
1490	4801
1490	4803
1491	4805
1491	4808
1490	4810
1489	4813
1489	4815
1489	4817
1488	4820
1488	4823
1489	4826
1489	4828
1489	4831
1489	4833
1489	4835
1488	4838
1487	4840
1486	4843
1486	4845
1486	4847
1487	4850
1489	4852
1489	4855
1490	4857
1491	4859
1490	4862
1490	4865
1489	4868
1488	4870
1487	4872
1484	4875
1481	4877
1479	4880
1480	4882
1485	4884
1491	4887
1493	4889
1493	4892
1493	4894
1493	4896
1492	4899
1491	4901
1491	4904
1492	4907
1492	4910
1491	4912
1492	4914
1495	4917
1495	4919
1495	4922
1494	4924
1493	4926
1493	4929
1492	4931
1492	4934
1494	4936
1495	4938
1496	4941
1495	4943
1494	4946
1492	4948
1492	4951
1492	4954
1491	4956
1488	4959
1486	4961
1484	4963
1485	4966
1487	4968
1489	4971
1490	4973
1490	4975
1491	4978
1491	4980
1491	4983
1490	4985
1488	4988
1486	4990
1486	4993
1487	4996
1483	4998
1481	5001
1482	5003
1485	5005
1488	5008
1489	5010
1489	5013
1488	5015
1489	5017
1490	5020
1492	5022
1492	5025
1492	5027
1492	5029
1493	5032
1494	5035
1494	5038
1494	5040
1493	5042
1493	5045
1493	5047
1492	5050
1491	5052
1489	5055
1489	5057
1490	5059
1491	5062
1493	5064
1495	5067
1495	5069
1494	5071
1491	5074
1486	5076
1483	5080
1481	5082
1483	5084
1488	5087
1490	5089
1491	5092
1489	5094
1487	5096
1489	5099
1491	5101
1492	5104
1492	5106
1491	5108
1489	5111
1489	5113
1489	5116
1490	5118
1491	5122
1491	5124
1492	5126
1493	5129
1492	5131
1490	5134
1489	5136
1488	5138
1488	5141
1486	5143
1485	5146
1486	5148
1490	5150
1492	5153
1493	5155
1493	5158
1491	5160
1490	5163
1490	5166
1490	5168
1491	5171
1490	5173
1490	5175
1490	5178
1490	5180
1490	5183
1491	5185
1492	5187
1491	5190
1489	5192
1489	5195
1489	5197
1488	5199
1485	5202
1482	5204
1481	5208
1484	5210
1489	5213
1490	5215
1490	5217
1488	5220
1486	5222
1485	5225
1486	5227
1487	5229
1488	5232
1489	5234
1489	5237
1489	5239
1489	5241
1490	5244
1490	5246
1490	5250
1490	5252
1491	5254
1491	5257
1490	5259
1490	5262
1490	5264
1491	5266
1490	5269
1489	5271
1487	5274
1487	5276
1487	5278
1487	5281
1487	5283
1486	5286
1485	5288
1486	5291
1488	5294
1489	5296
1490	5299
1492	5301
1495	5303
1497	5306
1497	5308
1495	5311
1492	5313
1488	5316
1487	5318
1487	5320
1491	5323
1493	5325
1494	5328
1493	5330
1491	5332
1489	5336
1489	5338
1489	5341
1489	5343
1489	5345
1489	5348
1489	5350
1488	5353
1488	5355
1489	5357
1489	5360
1490	5362
1491	5365
1491	5367
1492	5369
1491	5372
1489	5374
1487	5378
1488	5380
1490	5382
1492	5385
1495	5387
1494	5390
1493	5392
1493	5395
1495	5397
1496	5399
1496	5402
1493	5404
1492	5407
1492	5409
1496	5411
1498	5414
1496	5416
1495	5420
1493	5422
1492	5424
1491	5427
1491	5429
1491	5432
1491	5434
1491	5436
1492	5439
1492	5441
1491	5444
1490	5446
1489	5448
1489	5451
1491	5453
1492	5456
1491	5458
1491	5460
1490	5464
1487	5466
1486	5469
1484	5471
1483	5473
1484	5476
1486	5478
1488	5481
1491	5483
1490	5486
1488	5488
1486	5490
1484	5493
1485	5495
1484	5498
1485	5500
1485	5502
1485	5506
1485	5508
1482	5511
1481	5513
1482	5515
1487	5518
1491	5520
1492	5523
1493	5525
1492	5527
1489	5530
1486	5532
1483	5535
1481	5537
1482	5539
1484	5542
1484	5544
1484	5548
1484	5550
1485	5552
1485	5555
1485	5557
1485	5560
1485	5562
1485	5565
1484	5567
1483	5569
1483	5572
1483	5574
1483	5577
1484	5579
1484	5581
1484	5584
1484	5586
1484	5590
1484	5592
1482	5594
1480	5597
1476	5599
1474	5602
1476	5604
1480	5606
1482	5609
1484	5611
1485	5614
1485	5616
1486	5618
1486	5621
1486	5623
1486	5626
1487	5628
1487	5632
1487	5634
1487	5636
1486	5639
1486	5641
1487	5644
1488	5646
1490	5648
1494	5651
1496	5653
1493	5656
1489	5658
1487	5660
1488	5663
1496	5665
1496	5668
1499	5670
1498	5672
1498	5676
1498	5678
1504	5681
1512	5683
1510	5685
1503	5688
1491	5690
1478	5693
1473	5695
1485	5697
1531	5700
1577	5702
1588	5705
1578	5707
1575	5710
1579	5712
1581	5714
1594	5718
1633	5720
1657	5723
1659	5725
1651	5727
1642	5730
1631	5732
1631	5735
1624	5737
1620	5739
1639	5742
1663	5744
1672	5747
1676	5749
1675	5751
1675	5754
1665	5756
1656	5760
1655	5762
1679	5764
1699	5767
1698	5769
1673	5772
1640	5774
1611	5776
1585	5779
1551	5781
1531	5784
1557	5786
1575	5789
1542	5791
1521	5793
1547	5796
1623	5798
1687	5801
1703	5804
1667	5806
1637	5809
1618	5811
1615	5814
1607	5816
1593	5818
1604	5821
1608	5823
1602	5826
1568	5828
1556	5830
1574	5833
1585	5835
1549	5838
1495	5840
1506	5842
1562	5846
1578	5848
1565	5851
1548	5853
1538	5855
1541	5858
1555	5860
1560	5863
1553	5865
1539	5867
1567	5870
1582	5872
1566	5875
1538	5877
1515	5880
1519	5882
1525	5884
1518	5888
1529	5890
1532	5893
1528	5895
1533	5897
1552	5900
1560	5902
1549	5905
1544	5907
1555	5909
1574	5912
1560	5914
1529	5917
1515	5919
1528	5921
1516	5924
1497	5926
1499	5929
1529	5932
1557	5934
1561	5937
1521	5939
1475	5942
1467	5944
1475	5947
1476	5949
1480	5951
1479	5954
1467	5956
1467	5959
1470	5961
1469	5963
1518	5966
1561	5968
1570	5971
1538	5974
1502	5976
1518	5979
1527	5981
1485	5984
1446	5986
1441	5988
1471	5991
1498	5993
1517	5996
1534	5998
1534	6000
1519	6003
1494	6005
1482	6008
1481	6010
1483	6012
1477	6016
1466	6018
1459	6021
1469	6023
1478	6026
1488	6028
1493	6030
1489	6033
1481	6035
1482	6038
1481	6040
1482	6042
1480	6045
1488	6047
1512	6050
1531	6052
1517	6054
1494	6057
1473	6060
1486	6063
1478	6065
1458	6067
1471	6070
1504	6072
1518	6075
1515	6077
1515	6080
1508	6082
1505	6084
1515	6087
1531	6089
1523	6092
1486	6094
1449	6096
1453	6099
1458	6102
1470	6105
1473	6107
1486	6109
1495	6112
1496	6114
1474	6117
1444	6119
1460	6121
1497	6124
1518	6126
1479	6129
1462	6131
1470	6133
1492	6136
1504	6138
1513	6141
1498	6144
1469	6146
1458	6149
1477	6151
1488	6154
1501	6156
1498	6159
1479	6161
1481	6163
1504	6166
1520	6168
1528	6171
1521	6173
1502	6175
1455	6178
1433	6180
1430	6183
1432	6185
1439	6188
1437	6191
1435	6193
1462	6196
1530	6198
1574	6200
1565	6203
1498	6205
1465	6208
1506	6210
1546	6212
1529	6215
1471	6217
1406	6220
1376	6222
1433	6225
1470	6227
1504	6230
1522	6233
1516	6235
1492	6238
1505	6240
1539	6242
1542	6245
1518	6247
1482	6250
1457	6252
1449	6254
1444	6257
1438	6259
1445	6262
1472	6264
1513	6266
1518	6269
1497	6272
1453	6275
1484	6277
1513	6279
1512	6282
1476	6284
1484	6287
1499	6289
1512	6292
1512	6294
1495	6296
1484	6299
1496	6301
1503	6304
1458	6306
1457	6308
1514	6311
1547	6313
1517	6317
1496	6319
1471	6321
1447	6324
1455	6326
1466	6329
1455	6331
1455	6333
1463	6336
1484	6338
1489	6341
1469	6343
1436	6345
1439	6348
1469	6350
1517	6353
1519	6355
1486	6359
1445	6361
1444	6363
1462	6366
1491	6368
1514	6371
1501	6373
1473	6375
1484	6378
1467	6380
1437	6383
1453	6385
1483	6387
1504	6390
1500	6392
1502	6395
1501	6397
1484	6400
1472	6403
1485	6405
1507	6408
1508	6410
1494	6412
1462	6415
1430	6417
1408	6420
1437	6422
1466	6424
1472	6427
1466	6429
1446	6432
1431	6434
1445	6437
1494	6439
1488	6441
1456	6445
1443	6447
1465	6450
1508	6452
1533	6454
1522	6457
1498	6459
1470	6462
1468	6464
1472	6466
1469	6469
1472	6471
1468	6474
1455	6476
1472	6478
1508	6481
1516	6483
1505	6487
1485	6489
1479	6491
1462	6494
1456	6496
1463	6499
1478	6501
1482	6503
1466	6506
1456	6508
1465	6511
1465	6513
1463	6515
1494	6518
1488	6520
1478	6523
1489	6525
1494	6528
1479	6531
1459	6533
1469	6536
1485	6538
1475	6541
1490	6543
1498	6545
1469	6548
1468	6550
1496	6553
1508	6555
1509	6557
1497	6560
1488	6562
1485	6565
1475	6567
1483	6569
1498	6573
1493	6575
1445	6578
1402	6580
1432	6582
1506	6585
1531	6587
1502	6590
1479	6592
1499	6594
1488	6597
1462	6599
1465	6602
1484	6604
1482	6606
1475	6609
1469	6611
1453	6615
1447	6617
1476	6619
1504	6622
1512	6624
1495	6627
1487	6629
1490	6632
1488	6634
1475	6636
1457	6639
1452	6641
1466	6644
1463	6646
1468	6648
1477	6651
1487	6653
1518	6657
1540	6659
1514	6661
1458	6664
1431	6666
1443	6669
1484	6671
1494	6673
1482	6676
1446	6678
1423	6681
1418	6683
1424	6685
1437	6688
1456	6690
1482	6693
1505	6695
1518	6697
1509	6701
1479	6703
1468	6706
1469	6708
1482	6711
1497	6713
1495	6715
1487	6718
1479	6720
1468	6723
1456	6725
1457	6727
1432	6730
1440	6732
1468	6735
1478	6737
1481	6739
1490	6743
1495	6745
1480	6748
1461	6750
1460	6752
1468	6755
1482	6757
1490	6760
1489	6762
1500	6764
1499	6767
1485	6769
1453	6772
1426	6774
1459	6776
1506	6779
1497	6781
1444	6785
1409	6787
1425	6789
1456	6792
1484	6794
1507	6797
1477	6799
1437	6802
1458	6804
1476	6806
1474	6809
1467	6811
1461	6814
1466	6816
1480	6818
1479	6821
1475	6823
1487	6827
1481	6829
1484	6831
1491	6834
1479	6836
1432	6839
1418	6841
1437	6843
1465	6846
1496	6848
1525	6851
1537	6853
1515	6855
1474	6858
1455	6860
1469	6863
1494	6865
1487	6868
1447	6871
1436	6873
1460	6876
1488	6878
1510	6881
1520	6883
1500	6885
1498	6888
1514	6890
1503	6893
1449	6895
1415	6897
1427	6900
1455	6902
1457	6905
1479	6907
1489	6909
1478	6913
1464	6915
1453	6918
1439	6920
1442	6922
1478	6925
1521	6927
1566	6930
1566	6932
1533	6934
1468	6937
1441	6939
1432	6942
1442	6944
1452	6947
1438	6949
1436	6951
1474	6955
1495	6957
1513	6960
1528	6962
1511	6964
1470	6967
1443	6969
1478	6972
1511	6974
1494	6976
1472	6979
1464	6981
1459	6984
1446	6986
1437	6988
1470	6991
1517	6993
1504	6996
1479	6999
1450	7001
1454	7004
1465	7006
1456	7009
1436	7011
1439	7013
1472	7016
1492	7018
1499	7021
1525	7023
1523	7026
1504	7028
1478	7030
1480	7033
1483	7035
1472	7038
1450	7041
1456	7043
1456	7046
1439	7048
1429	7051
1454	7053
1455	7055
1437	7058
1463	7060
1503	7063
1516	7065
1511	7067
1501	7070
1491	7072
1469	7075
1454	7077
1450	7079
1458	7083
1476	7085
1501	7088
1509	7090
1503	7093
1470	7095
1443	7097
1460	7100
1488	7102
1507	7105
1491	7107
1472	7109
1471	7112
1477	7114
1460	7117
1447	7119
1466	7121
1494	7124
1489	7127
1468	7130
1454	7132
1449	7134
1442	7137
1435	7139
1467	7142
1489	7144
1478	7146
1476	7149
1493	7151
1499	7154
1475	7156
1458	7159
1463	7161
1492	7163
1481	7166
1445	7169
1436	7172
1440	7174
1443	7176
1453	7179
1468	7181
1454	7184
1428	7186
1432	7188
1467	7191
1497	7193
1498	7196
1498	7198
1488	7200
1500	7203
1541	7205
1557	7208
1543	7211
1512	7213
1467	7216
1427	7218
1403	7221
1420	7223
1463	7225
1520	7228
1515	7230
1501	7233
1496	7235
1482	7238
1475	7240
1477	7242
1466	7245
1451	7247
1476	7250
1504	7252
1519	7255
1494	7258
1490	7260
1505	7263
1489	7265
1436	7267
1439	7270
1462	7272
1474	7275
1483	7277
1490	7279
1475	7282
1480	7284
1494	7287
1513	7289
1521	7291
1521	7294
1500	7297
1493	7300
1500	7302
1492	7305
1455	7307
1440	7309
1445	7312
1459	7314
1470	7317
1464	7319
1456	7321
1465	7324
1511	7326
1536	7329
1535	7331
1504	7333
1480	7336
1472	7339
1485	7342
1481	7344
1470	7346
1462	7349
1469	7351
1452	7354
1412	7356
1426	7358
1481	7361
1508	7363
1479	7366
1470	7368
1500	7371
1505	7373
1500	7375
1500	7378
1503	7380
1508	7384
1514	7386
1502	7388
1471	7391
1436	7393
1413	7396
1411	7398
1420	7400
1438	7403
1458	7405
1470	7408
1472	7410
1480	7412
1478	7415
1476	7417
1482	7420
1503	7422
1514	7425
1501	7428
1484	7430
1490	7433
1495	7435
1490	7438
1485	7440
1472	7442
1463	7445
1444	7447
1429	7450
1444	7452
1471	7454
1506	7457
1518	7459
1509	7462
1494	7464
1486	7467
1483	7470
1484	7472
1475	7475
1462	7477
1439	7479
1419	7482
1434	7484
1459	7487
1466	7489
1483	7491
1486	7494
1479	7496
1475	7499
1487	7501
1519	7503
1528	7506
1493	7508
1433	7512
1432	7514
1460	7517
1453	7519
1417	7521
1437	7524
1480	7526
1525	7529
1533	7531
1529	7533
1537	7536
1533	7538
1502	7541
1482	7543
1477	7545
1469	7548
1476	7550
1468	7554
1450	7556
1456	7558
1495	7561
1491	7563
1477	7566
1473	7568
1475	7570
1478	7573
1494	7575
1499	7578
1476	7580
1456	7583
1477	7585
1493	7587
1523	7590
1557	7592
1571	7596
1516	7598
1493	7600
1509	7603
1516	7605
1469	7608
1418	7610
1457	7612
1493	7615
1503	7617
1507	7620
1492	7622
1467	7624
1454	7627
1470	7629
1482	7632
1476	7634
1463	7636
1481	7640
1528	7642
1563	7645
1533	7647
1475	7650
1440	7652
1464	7654
1469	7657
1452	7659
1436	7662
1443	7664
1494	7666
1533	7669
1494	7671
1450	7674
1445	7676
1507	7678
1543	7682
1594	7684
1615	7687
1566	7689
1502	7691
1432	7694
1426	7696
1435	7699
1410	7701
1424	7703
1465	7706
1507	7708
1519	7711
1505	7713
1463	7716
1475	7718
1549	7720
1580	7724
1565	7726
1531	7729
1492	7731
1469	7733
1459	7736
1449	7738
1451	7741
1441	7743
1434	7745
1447	7748
1460	7750
1506	7753
1550	7755
1578	7757
1578	7760
1565	7762
1553	7766
1553	7768
1511	7770
1446	7773
1432	7775
1461	7778
1469	7780
1433	7782
1417	7785
1442	7787
1465	7790
1504	7792
1548	7795
1562	7797
1534	7799
1513	7802
1530	7804
1505	7808
1468	7810
1443	7812
1431	7815
1442	7817
1470	7820
1482	7822
1479	7824
1494	7827
1505	7829
1504	7832
1495	7834
1510	7836
1513	7839
1515	7841
1514	7844
1538	7846
1549	7848
1552	7852
1539	7854
1517	7857
1495	7859
1475	7862
1476	7864
1491	7866
1488	7869
1446	7871
1440	7874
1484	7876
1510	7878
1507	7881
1499	7883
1499	7886
1491	7888
1481	7890
1495	7894
1496	7896
1469	7899
1462	7901
1474	7903
1496	7906
1502	7908
1511	7911
1511	7913
1493	7915
1479	7918
1481	7920
1500	7923
1484	7925
1479	7928
1524	7930
1542	7932
1518	7936
1489	7938
1505	7941
1534	7943
1543	7945
1506	7948
1454	7950
1426	7953
1444	7955
1479	7957
1506	7960
1516	7962
1517	7965
1528	7967
1529	7969
1506	7972
1466	7974
1449	7977
1449	7980
1469	7982
1472	7985
1458	7987
1454	7990
1475	7992
1470	7995
1449	7997
1460	7999
1472	8002
1477	8004
1495	8007
1538	8009
1523	8011
1489	8014
1469	8016
1453	8019
1436	8022
1434	8024
1455	8027
1474	8029
1503	8032
1528	8034
1497	8036
1475	8039
1485	8041
1511	8044
1527	8046
1492	8048
1475	8051
1485	8053
1504	8056
1504	8058
1503	8060
1481	8064
1458	8066
1463	8069
1461	8071
1441	8073
1442	8076
1480	8078
1492	8081
1527	8083
1566	8086
1558	8088
1517	8090
1499	8093
1486	8095
1473	8098
1467	8100
1464	8102
1452	8105
1440	8108
1425	8111
1446	8113
1502	8115
1540	8118
1518	8120
1518	8123
1505	8125
1489	8127
1485	8130
1478	8132
1464	8135
1446	8137
1433	8139
1441	8142
1459	8144
1457	8147
1477	8150
1506	8152
1529	8155
1529	8157
1515	8160
1509	8162
1498	8165
1476	8167
1466	8169
1470	8172
1469	8174
1459	8177
1466	8179
1478	8181
1504	8184
1507	8186
1480	8189
1462	8192
1488	8194
1512	8197
1492	8199
1479	8202
1492	8204
1501	8206
1476	8209
1436	8211
1452	8214
1521	8216
1530	8218
1502	8221
1483	8223
1470	8226
1456	8228
1470	8230
1492	8233
1496	8236
1494	8239
1502	8241
1501	8244
1517	8246
1516	8248
1483	8251
1436	8253
1440	8256
1467	8258
1466	8260
1437	8263
1425	8265
1421	8268
1431	8270
1512	8272
1552	8275
1552	8278
1534	8281
1523	8283
1496	8285
1468	8288
1456	8290
1469	8293
1480	8295
1494	8297
1505	8300
1484	8302
1443	8305
1447	8307
1494	8309
1534	8312
1546	8314
1540	8317
1536	8320
1531	8323
1534	8325
1528	8327
1493	8330
1447	8332
1437	8335
1489	8337
1525	8339
1491	8342
1423	8344
1408	8347
1460	8349
1499	8351
1511	8354
1524	8356
1523	8359
1504	8361
1478	8364
1449	8367
1469	8369
1493	8372
1481	8374
1449	8376
1450	8379
1481	8381
1517	8384
1528	8386
1497	8388
1493	8391
1531	8393
1541	8396
1540	8398
1536	8401
1506	8403
1486	8406
1472	8409
1463	8411
1484	8414
1501	8416
1508	8418
1493	8421
1466	8423
1455	8426
1464	8428
1488	8430
1500	8433
1489	8435
1458	8438
1467	8440
1492	8442
1486	8445
1470	8448
1472	8451
1476	8453
1469	8455
1446	8458
1453	8460
1485	8463
1508	8465
1519	8467
1551	8470
1535	8472
1503	8475
1496	8477
1485	8480
1478	8482
1499	8484
1535	8487
1539	8489
1494	8493
1441	8495
1439	8497
1478	8500
1493	8502
1488	8505
1491	8507
1501	8509
1490	8512
1462	8514
1449	8517
1442	8519
1432	8521
1456	8524
1486	8526
1474	8529
1431	8531
1432	8534
1460	8537
1511	8539
1541	8542
1542	8544
1512	8546
1486	8549
1495	8551
1512	8554
1522	8556
1504	8559
1477	8561
1445	8563
1438	8566
1435	8568
1439	8571
1466	8573
1515	8576
1526	8579
1570	8581
1582	8584
1558	8586
1493	8588
1468	8591
1472	8593
1482	8596
1489	8598
1474	8600
1457	8603
1450	8605
1439	8608
1433	8610
1447	8612
1484	8615
1511	8617
1512	8621
1496	8623
1498	8626
1498	8628
1519	8630
1526	8633
1506	8635
1490	8638
1491	8640
1523	8642
1546	8645
1533	8647
1484	8650
1450	8652
1459	8654
1467	8657
1472	8659
1475	8663
1462	8665
1476	8667
1510	8670
1525	8672
1523	8675
1518	8677
1498	8679
1475	8682
1482	8684
1525	8687
1539	8689
1522	8691
1483	8694
1471	8696
1476	8699
1482	8701
1458	8705
1426	8707
1422	8709
1456	8712
1508	8714
1533	8717
1546	8719
1548	8721
1525	8724
1508	8726
1491	8729
1500	8731
1512	8733
1497	8736
1489	8738
1510	8741
1514	8743
1494	8745
1447	8749
1424	8751
1456	8754
1507	8756
1497	8758
1474	8761
1464	8763
1524	8766
1567	8768
1565	8771
1546	8773
1522	8775
1499	8778
1468	8780
1471	8783
1495	8785
1498	8787
1475	8791
1459	8793
1457	8796
1469	8798
1494	8800
1513	8803
1516	8805
1503	8808
1494	8810
1491	8812
1469	8815
1457	8817
1489	8820
1504	8822
1514	8824
1511	8827
1525	8829
1551	8833
1542	8835
1504	8838
1491	8840
1492	8842
1491	8845
1494	8847
1490	8850
1484	8852
1471	8854
1497	8857
1530	8859
1540	8862
1503	8864
1441	8866
1427	8869
1467	8871
1473	8875
1467	8877
1486	8879
1497	8882
1508	8884
1518	8887
1542	8889
1556	8891
1545	8894
1517	8896
1514	8899
1493	8901
1467	8903
1481	8906
1511	8908
1537	8911
1545	8913
1539	8916
1532	8919
1508	8921
1489	8924
1483	8926
1489	8929
1487	8931
1480	8933
1498	8936
1514	8938
1512	8941
1499	8943
1511	8945
1527	8948
1520	8950
1486	8953
1441	8955
1393	8957
1382	8961
1443	8963
1520	8966
1543	8968
1536	8970
1518	8973
1504	8975
1489	8978
1480	8980
1466	8982
1460	8985
1482	8987
1520	8990
1521	8992
1513	8995
1516	8997
1490	8999
1456	9003
1456	9005
1475	9008
1451	9010
1431	9012
1461	9015
1497	9017
1502	9020
1487	9022
1482	9024
1493	9027
1529	9029
1542	9032
1513	9034
1481	9036
1457	9039
1440	9041
1430	9044
1452	9047
1474	9049
1494	9052
1508	9054
1514	9057
1502	9059
1473	9062
1464	9064
1491	9066
1514	9069
1502	9071
1479	9074
1480	9076
1510	9078
1489	9081
1458	9083
1449	9086
1453	9089
1443	9091
1478	9094
1525	9096
1539	9099
1507	9101
1478	9103
1476	9106
1497	9108
1498	9111
1493	9113
1477	9115
1465	9118
1483	9120
1516	9123
1538	9125
1523	9128
1487	9131
1483	9133
1501	9136
1513	9138
1498	9141
1465	9143
1434	9145
1414	9148
1427	9150
1491	9153
1553	9155
1562	9157
1504	9160
1450	9162
1454	9165
1487	9167
1514	9169
1525	9172
1527	9175
1516	9178
1508	9180
1498	9182
1471	9185
1434	9187
1428	9190
1455	9192
1472	9195
1427	9197
1400	9199
1425	9202
1472	9204
1490	9207
1508	9209
1546	9211
1571	9214
1537	9217
1485	9220
1459	9222
1472	9224
1495	9227
1520	9229
1514	9232
1504	9234
1498	9236
1457	9239
1424	9241
1413	9244
1408	9246
1411	9248
1443	9251
1505	9253
1553	9256
1565	9259
1553	9261
1540	9264
1525	9266
1523	9269
1515	9271
1514	9274
1505	9276
1483	9278
1444	9281
1427	9283
1455	9286
1497	9288
1504	9290
1484	9293
1473	9295
1468	9298
1477	9300
1513	9303
1545	9306
1534	9308
1507	9311
1491	9313
1461	9315
1451	9318
1458	9320
1474	9323
1475	9325
1487	9327
1483	9330
1477	9332
1488	9335
1515	9337
1520	9340
1520	9342
1513	9345
1488	9348
1473	9350
1461	9353
1448	9355
1447	9357
1453	9360
1457	9362
1455	9365
1456	9367
1467	9369
1475	9372
1498	9374
1501	9377
1457	9379
1421	9381
1429	9384
1471	9387
1478	9390
1470	9392
1504	9394
1544	9397
1550	9399
1504	9402
1469	9404
1496	9407
1511	9409
1490	9411
1459	9414
1459	9416
1475	9419
1495	9421
1512	9423
1502	9426
1467	9428
1450	9432
1451	9434
1462	9436
1469	9439
1464	9441
1498	9444
1525	9446
1507	9448
1470	9451
1443	9453
1442	9456
1487	9458
1537	9460
1522	9463
1449	9465
1431	9468
1434	9470
1425	9474
1419	9476
1431	9478
1450	9481
1470	9483
1481	9486
1487	9488
1508	9490
1522	9493
1542	9495
1531	9498
1516	9500
1481	9502
1463	9505
1463	9507
1453	9510
1445	9512
1477	9515
1495	9518
1513	9520
1528	9523
1532	9525
1526	9527
1499	9530
1470	9532
1449	9535
1433	9537
1439	9540
1455	9542
1469	9544
1485	9547
1511	9549
1522	9552
1539	9554
1538	9556
1534	9560
1498	9562
1453	9565
1442	9567
1433	9569
1414	9572
1419	9574
1469	9577
1518	9579
1520	9581
1473	9584
1443	9586
1472	9589
1512	9591
1541	9593
1540	9596
1533	9598
1496	9602
1451	9604
1428	9607
1428	9609
1447	9611
1501	9614
1532	9616
1515	9619
1476	9621
1447	9623
1442	9626
1448	9628
1457	9631
1475	9633
1509	9635
1537	9638
1520	9640
1484	9644
1458	9646
1470	9648
1482	9651
1481	9653
1482	9656
1478	9658
1485	9660
1501	9663
1499	9665
1486	9668
1495	9670
1515	9672
1516	9675
1504	9677
1474	9680
1453	9682
1457	9686
1513	9688
1507	9690
1446	9693
1417	9695
1454	9698
1454	9700
1445	9702
1484	9705
1524	9707
1516	9710
1496	9712
1494	9714
1487	9717
1483	9719
1489	9722
1473	9724
1447	9726
1450	9730
1459	9732
1469	9735
1486	9737
1492	9739
1479	9742
1460	9744
1493	9747
1551	9749
1582	9751
1535	9754
1496	9756
1489	9759
1477	9761
1457	9764
1451	9766
1461	9768
1461	9772
1456	9774
1466	9777
1480	9779
1483	9781
1489	9784
1476	9786
1470	9789
1476	9791
1476	9793
1463	9796
1459	9798
1471	9801
1481	9803
1464	9805
1443	9808
1465	9810
1493	9814
1501	9816
1496	9818
1483	9821
1483	9823
1507	9826
1495	9828
1483	9830
1486	9833
1498	9835
1481	9838
1448	9840
1439	9843
1462	9845
1469	9847
1458	9850
1457	9852
1471	9856
1470	9858
1491	9860
1529	9863
1526	9865
1505	9868
1475	9870
1447	9872
1462	9875
1479	9877
1492	9880
1475	9882
1472	9884
1474	9887
1474	9889
1463	9892
1465	9894
1478	9896
1505	9900
1506	9902
1487	9905
1470	9907
1472	9910
1456	9912
1459	9914
1472	9917
1485	9919
1503	9922
1510	9924
1504	9926
1482	9929
1439	9931
1418	9934
1419	9936
1431	9938
1434	9942
1424	9944
1433	9947
1467	9949
1470	9951
1478	9954
1512	9956
1514	9959
1457	9961
1435	9963
1474	9966
1515	9968
1524	9971
1528	9973
1503	9976
1464	9978
1446	9980
1473	9984
1489	9986
1492	9989
1505	9991
1506	9993
1498	9996
1506	9998
1500	10001
1490	10003
1483	10005
1470	10008
1465	10010
1464	10013
1466	10015
1471	10018
1478	10020
1479	10023
1467	10025
1443	10029
1449	10031
1472	10034
1493	10036
1481	10038
1464	10041
1447	10043
1462	10046
1510	10048
1537	10051
1537	10053
1504	10056
1487	10058
1484	10061
1494	10063
1499	10065
1475	10068
1469	10071
1497	10074
1503	10076
1482	10079
1468	10081
1463	10084
1458	10086
1468	10089
1474	10091
1485	10093
1515	10096
1531	10098
1511	10101
1463	10103
1466	10106
1530	10108
1552	10112
1526	10114
1487	10117
1473	10119
1465	10122
1478	10124
1486	10126
1495	10129
1494	10131
1483	10134
1488	10136
1508	10139
1482	10141
1416	10144
1417	10146
1494	10149
1542	10151
1514	10153
1485	10157
1473	10159
1476	10162
1475	10164
1481	10167
1498	10169
1489	10172
1456	10174
1440	10177
1459	10179
1472	10181
1483	10184
1509	10186
1508	10189
1498	10191
1486	10194
1488	10196
1470	10200
1460	10202
1451	10205
1462	10207
1474	10210
1475	10212
1480	10214
1478	10217
1465	10219
1469	10222
1479	10224
1497	10227
1518	10229
1499	10232
1479	10234
1486	10237
1494	10240
1491	10242
1491	10245
1486	10247
1481	10250
1479	10252
1484	10255
1468	10257
1443	10260
1453	10262
1476	10265
1492	10267
1501	10269
1485	10272
1470	10274
1462	10277
1452	10279
1443	10283
1439	10285
1442	10288
1449	10290
1456	10293
1462	10295
1456	10298
1463	10300
1508	10302
1557	10305
1527	10307
1463	10310
1450	10312
1464	10315
1448	10317
1432	10320
1417	10322
1412	10326
1457	10328
1518	10330
1535	10333
1523	10335
1488	10338
1474	10340
1474	10343
1484	10345
1475	10348
1468	10350
1470	10353
1486	10355
1482	10357
1454	10360
1440	10362
1462	10365
1461	10368
1439	10371
1428	10373
1423	10376
1437	10378
1460	10381
1473	10383
1473	10385
1458	10388
1479	10390
1537	10393
1569	10395
1579	10398
1554	10400
1519	10403
1491	10405
1479	10408
1481	10411
1483	10414
1460	10416
1434	10418
1441	10421
1439	10423
1440	10426
1475	10428
1525	10431
1527	10433
1516	10436
1515	10438
1512	10441
1499	10443
1465	10445
1440	10448
1443	10450
1459	10454
1470	10456
1484	10459
1522	10461
1529	10464
1503	10466
1465	10469
1441	10471
1457	10473
1485	10476
1481	10478
1464	10481
1467	10483
1470	10486
1474	10488
1468	10491
1459	10493
1445	10497
1445	10499
1451	10502
1447	10504
1448	10506
1455	10509
1460	10511
1459	10514
1454	10516
1459	10519
1472	10521
1469	10524
1463	10526
1476	10529
1490	10531
1482	10533
1457	10536
1442	10539
1468	10542
1491	10544
1488	10547
1447	10549
1445	10552
1472	10554
1475	10557
1476	10559
1486	10561
1469	10564
1446	10566
1439	10569
1450	10571
1456	10574
1460	10576
1463	10579
1464	10582
1461	10585
1456	10587
1452	10590
1450	10592
1461	10594
1472	10597
1472	10599
1465	10602
1455	10604
1449	10607
1441	10609
1444	10612
1446	10614
1448	10617
1448	10619
1452	10621
1473	10625
1499	10627
1502	10630
1479	10632
1457	10635
1454	10637
1450	10640
1463	10642
1469	10645
1467	10647
1469	10649
1465	10652
1459	10654
1456	10657
1452	10659
1447	10662
1442	10664
1437	10668
1440	10670
1447	10673
1453	10675
1457	10677
1455	10680
1454	10682
1453	10685
1449	10687
1447	10690
1449	10692
1450	10695
1457	10697
1462	10700
1466	10702
1466	10705
1460	10707
1449	10710
1440	10713
1439	10715
1448	10718
1462	10720
1474	10723
1474	10725
1467	10728
1461	10730
1461	10733
1461	10735
1462	10737
1465	10740
1467	10742
1467	10745
1462	10747
1458	10750
1457	10753
1455	10756
1453	10758
1452	10761
1455	10763
1459	10765
1460	10768
1458	10770
1454	10773
1452	10775
1453	10778
1457	10780
1459	10783
1459	10785
1457	10788
1458	10790
1461	10793
1464	10796
1473	10798
1481	10801
1478	10803
1469	10806
1464	10808
1464	10811
1466	10813
1466	10816
1465	10818
1464	10821
1463	10823
1467	10825
1473	10828
1473	10830
1470	10833
1467	10835
1467	10839
1465	10841
1464	10844
1463	10846
1462	10849
1462	10851
1461	10853
1460	10856
1460	10858
1463	10861
1465	10863
1465	10866
1464	10868
1461	10871
1459	10873
1458	10876
1458	10878
1462	10882
1468	10884
1472	10886
1471	10889
1468	10891
1467	10894
1468	10896
1468	10899
1470	10901
1471	10904
1471	10906
1472	10909
1471	10911
1470	10913
1471	10916
1471	10918
1470	10921
1470	10924
1473	10927
1473	10929
1471	10932
1467	10934
1467	10937
1469	10939
1471	10941
1472	10944
1472	10946
1471	10949
1471	10951
1471	10954
1474	10956
1486	10959
1494	10961
1494	10964
1487	10967
1482	10969
1479	10972
1477	10974
1476	10977
1474	10979
1471	10982
1469	10984
1466	10987
1467	10989
1470	10992
1474	10994
1475	10997
1476	10999
1474	11001
1474	11004
1476	11006
1478	11010
1482	11012
1484	11015
1486	11017
1486	11020
1487	11022
1487	11025
1486	11027
1485	11029
1484	11032
1485	11034
1485	11037
1485	11039
1485	11042
1484	11044
1483	11047
1485	11049
1487	11053
1487	11055
1484	11057
1482	11060
1484	11062
1487	11065
1488	11067
1484	11070
1481	11072
1481	11075
1484	11077
1487	11080
1489	11082
1490	11085
1490	11087
1492	11089
1493	11092
1494	11095
1493	11098
1492	11100
1493	11103
1494	11105
1494	11108
1493	11110
1493	11113
1492	11115
1493	11117
1493	11120
1492	11122
1491	11125
1488	11127
1489	11130
1491	11132
1490	11136
1489	11138
1488	11141
1490	11143
1491	11145
1492	11148
1493	11150
1493	11153
1493	11155
1492	11158
1492	11160
1493	11163
1494	11165
1494	11168
1495	11170
1495	11173
1495	11175
1495	11177
1495	11181
1496	11183
1496	11186
1496	11188
1496	11191
1495	11193
1493	11196
1491	11198
1492	11201
1494	11203
1495	11205
1496	11208
1496	11210
1497	11213
1498	11215
1498	11218
1497	11220
1496	11224
1496	11226
1497	11229
1499	11231
1502	11233
1503	11236
1502	11238
1501	11241
1501	11243
1501	11246
1501	11248
1500	11251
1499	11253
1497	11256
1497	11258
1497	11260
1497	11264
1498	11266
1500	11269
1501	11271
1502	11274
1502	11276
1502	11279
1501	11281
1501	11284
1501	11286
1503	11289
1505	11291
1504	11293
1503	11296
1502	11298
1501	11301
1501	11303
1501	11307
1500	11309
1500	11312
1500	11314
1499	11317
1499	11319
1499	11321
1498	11324
1497	11326
1496	11329
1495	11331
1495	11334
1496	11336
1496	11339
1496	11341
1496	11344
1495	11346
1493	11348
1491	11352
1491	11354
1493	11357
1494	11359
1495	11362
1495	11364
1495	11367
1494	11369
1493	11372
1492	11374
1491	11377
1491	11379
1490	11381
1490	11384
1490	11386
1491	11389
1491	11392
1491	11395
1490	11397
1489	11400
1490	11402
1490	11405
1491	11407
1491	11409
1491	11412
1492	11414
1492	11417
1492	11419
1490	11422
1490	11424
1491	11427
1492	11429
1492	11432
1492	11435
1492	11437
1492	11440
1491	11442
1491	11445
1490	11447
1488	11450
1488	11452
1488	11455
1490	11457
1492	11460
1493	11462
1492	11465
1491	11467
1489	11469
1488	11472
1490	11474
1490	11478
1490	11480
1489	11483
1488	11485
1489	11488
1491	11490
1491	11493
1492	11495
1492	11497
1493	11500
1492	11502
1491	11505
1489	11507
1489	11510
1491	11512
1490	11515
1489	11517
1488	11521
1489	11523
1490	11525
1491	11528
1491	11530
1490	11533
1490	11535
1490	11538
1490	11540
1490	11543
1490	11545
1489	11548
1489	11550
1489	11553
1488	11555
1488	11557
1487	11560
1485	11563
1482	11566
1480	11568
1480	11571
1482	11573
1485	11576
1488	11578
1488	11581
1488	11583
1489	11585
1490	11588
1490	11590
1490	11593
1491	11595
1492	11598
1493	11600
1490	11603
1489	11606
1488	11609
1487	11611
1486	11613
1486	11616
1485	11618
1486	11621
1486	11623
1487	11626
1486	11628
1485	11631
1484	11633
1484	11636
1483	11638
1481	11640
1479	11643
1480	11645
1480	11649
1481	11651
1483	11654
1484	11656
1485	11659
1486	11661
1486	11664
1486	11666
1486	11669
1485	11671
1485	11673
1484	11676
1482	11678
1480	11681
1481	11683
1482	11686
1483	11688
1483	11692
1484	11694
1484	11697
1484	11699
1483	11701
1483	11704
1482	11706
1480	11709
1479	11711
1480	11714
1484	11716
1485	11719
1486	11721
1486	11724
1486	11726
1485	11728
1484	11731
1482	11734
1481	11737
1483	11739
1486	11742
1487	11744
1488	11747
1488	11749
1486	11752
1485	11754
1483	11757
1481	11759
1481	11761
1481	11764
1481	11766
1482	11769
1482	11771
1482	11774
1482	11777
1482	11780
1481	11782
1480	11785
1478	11787
1478	11789
1480	11792
1481	11794
1482	11797
1482	11799
1483	11802
1483	11804
1483	11807
1483	11809
1482	11812
1480	11814
1479	11816
1481	11820
1482	11822
1483	11825
1483	11827
1483	11830
1482	11832
1482	11835
1482	11837
1481	11840
1481	11842
1479	11845
1479	11847
1479	11849
1481	11852
1482	11854
1483	11857
1484	11859
1485	11863
1485	11865
1484	11868
1483	11870
1481	11873
1480	11875
1481	11877
1481	11880
1482	11882
1483	11885
1483	11887
1484	11890
1483	11892
1482	11895
1482	11897
1483	11900
1483	11902
1483	11905
1482	11908
1482	11910
1482	11913
1483	11915
1484	11918
1484	11920
1485	11923
1486	11925
1487	11928
1488	11930
1487	11933
1488	11935
1487	11937
1487	11940
1487	11942
1486	11945
1486	11948
1486	11951
1486	11953
1486	11956
1485	11958
1485	11961
1485	11963
1485	11965
1485	11968
1485	11970
1484	11973
1484	11975
1484	11978
1483	11980
1480	11983
1479	11985
1479	11988
1481	11991
1483	11993
1483	11996
1484	11998
1484	12001
1484	12003
1484	12006
1483	12008
1482	12011
1481	12013
1480	12016
1481	12018
1482	12021
1483	12023
1484	12025
1485	12028
1485	12030
1484	12034
1482	12036
1481	12039
1480	12041
1480	12044
1479	12046
1480	12049
1480	12051
1481	12053
1483	12056
1485	12058
1487	12061
1485	12063
1484	12066
1482	12068
1482	12071
1483	12073
1484	12077
1485	12079
1485	12081
1488	12084
1496	12086
1501	12089
1499	12091
1492	12094
1486	12096
1483	12099
1481	12101
1481	12104
1480	12106
1479	12109
1479	12111
1478	12113
1477	12116
1478	12119
1478	12122
1479	12124
1480	12127
1480	12129
1480	12132
1480	12134
1479	12137
1480	12139
1479	12141
1479	12144
1479	12146
1479	12149
1479	12151
1478	12154
1478	12156
1479	12160
1479	12162
1479	12165
1480	12167
1481	12169
1483	12172
1486	12174
1486	12177
1486	12179
1485	12182
1486	12184
1485	12187
1484	12189
1483	12192
1483	12194
1483	12197
1481	12199
1480	12201
1479	12205
1479	12207
1481	12210
1482	12212
1483	12215
1483	12217
1481	12220
1479	12222
1477	12225
1476	12227
1477	12229
1479	12232
1481	12234
1481	12237
1482	12239
1483	12242
1484	12244
1484	12248
1484	12250
1484	12253
1485	12255
1485	12257
1485	12260
1485	12262
1484	12265
1485	12267
1486	12270
1488	12272
1489	12275
1488	12277
1488	12280
1488	12282
1487	12284
1486	12288
1486	12290
1486	12293
1488	12295
1490	12298
1489	12300
1487	12303
1486	12305
1485	12308
1486	12310
1486	12313
1486	12315
1487	12317
1487	12320
1487	12322
1487	12325
1487	12327
1487	12331
1488	12333
1491	12336
1491	12338
1491	12341
1490	12343
1489	12345
1488	12348
1486	12350
1485	12353
1484	12355
1484	12358
1486	12360
1488	12363
1488	12365
1488	12368
1488	12370
1488	12372
1488	12376
1488	12378
1488	12381
1487	12383
1487	12386
1487	12388
1489	12391
1491	12393
1492	12396
1491	12398
1491	12401
1489	12403
1488	12405
1488	12408
1488	12410
1487	12413
1488	12416
1488	12419
1488	12421
1493	12424
1496	12426
1498	12429
1496	12431
1492	12433
1490	12436
1489	12438
1488	12441
1488	12443
1487	12446
1487	12448
1487	12451
1487	12453
1487	12456
1488	12459
1487	12461
1488	12464
1488	12466
1488	12469
1489	12471
1488	12474
1488	12476
1487	12479
1487	12481
1487	12484
1487	12486
1486	12488
1485	12491
1484	12493
1485	12496
1485	12498
1486	12502
1487	12504
1487	12507
1487	12509
1488	12512
1488	12514
1488	12517
1487	12519
1487	12521
1487	12524
1491	12526
1495	12529
1498	12531
1497	12534
1494	12536
1493	12539
1492	12541
1492	12545
1491	12547
1491	12549
1490	12552
1490	12554
1490	12557
1490	12559
1490	12562
1491	12564
1492	12567
1492	12569
1492	12572
1491	12574
1490	12576
1490	12579
1489	12581
1489	12584
1489	12587
1490	12590
1490	12592
1490	12595
1490	12597
1489	12600
1487	12602
1487	12605
1489	12607
1489	12609
1490	12612
1489	12614
1488	12617
1488	12619
1487	12622
1487	12624
1487	12627
1488	12630
1489	12633
1489	12635
1490	12637
1491	12640
1491	12642
1490	12645
1490	12647
1490	12650
1489	12652
1488	12655
1489	12657
1490	12660
1492	12662
1491	12664
1490	12667
1488	12669
1487	12673
1487	12675
1487	12678
1485	12680
1484	12683
1485	12685
1487	12688
1488	12690
1488	12693
1488	12695
1487	12697
1486	12700
1486	12702
1486	12705
1485	12707
1485	12710
1484	12712
1484	12716
1485	12718
1485	12721
1485	12723
1485	12725
1485	12728
1485	12730
1486	12733
1486	12735
1486	12738
1485	12740
1485	12743
1485	12745
1484	12748
1485	12750
1485	12752
1486	12755
1486	12758
1485	12761
1485	12763
1487	12766
1486	12768
1485	12771
1484	12773
1484	12776
1483	12778
1483	12780
1483	12783
1483	12785
1484	12788
1484	12790
1484	12793
1483	12795
1482	12798
1481	12801
1482	12804
1482	12806
1482	12809
1482	12811
1483	12813
1484	12816
1484	12818
1482	12821
1482	12823
1482	12826
1484	12828
1484	12831
1484	12833
1484	12836
1483	12838
1484	12840
1484	12844
1485	12846
1485	12849
1485	12851
1485	12854
1486	12856
1487	12859
1490	12861
1490	12864
1488	12866
1486	12868
1486	12871
1486	12873
1486	12876
1486	12878
1485	12881
1485	12883
1485	12887
1485	12889
1485	12892
1484	12894
1484	12896
1484	12899
1484	12901
1483	12904
1483	12906
1484	12909
1484	12911
1484	12914
1485	12916
1485	12919
1485	12921
1487	12924
1489	12926
1489	12929
1487	12932
1485	12934
1484	12937
1484	12939
1486	12942
1487	12944
1487	12947
1486	12949
1485	12952
1485	12954
1484	12956
1484	12959
1484	12961
1483	12964
1482	12966
1483	12969
1483	12972
1483	12975
1485	12977
1485	12980
1486	12982
1485	12984
1484	12987
1485	12989
1486	12992
1487	12994
1486	12997
1486	12999
1487	13002
1491	13004
1493	13007
1492	13009
1488	13012
1485	13015
1484	13017
1485	13020
1485	13022
1485	13025
1484	13027
1484	13030
1484	13032
1484	13035
1484	13037
1483	13040
1483	13042
1483	13044
1483	13047
1482	13049
1482	13052
1482	13054
1483	13058
1484	13060
1486	13063
1486	13065
1486	13068
1486	13070
1485	13072
1485	13075
1486	13077
1488	13080
1488	13082
1487	13085
1485	13087
1484	13090
1483	13092
1484	13095
1486	13097
1487	13100
1488	13103
1489	13105
1489	13108
1488	13110
1488	13113
1490	13115
1492	13118
1492	13120
1490	13123
1488	13125
1486	13128
1487	13130
1489	13132
1489	13135
1488	13137
1486	13140
1485	13143
1486	13146
1486	13148
1488	13151
1488	13153
1489	13156
1488	13158
1487	13160
1487	13163
1487	13165
1487	13168
1487	13170
1489	13173
1489	13175
1490	13178
1489	13180
1490	13184
1489	13186
1489	13188
1490	13191
1490	13193
1489	13196
1488	13198
1487	13201
1486	13203
1485	13206
1483	13208
1483	13211
1487	13213
1491	13216
1493	13218
1492	13220
1491	13223
1489	13225
1487	13229
1485	13231
1485	13234
1485	13236
1488	13239
1489	13241
1488	13244
1486	13246
1485	13248
1486	13251
1486	13253
1487	13256
1486	13258
1485	13261
1485	13263
1486	13266
1488	13268
1489	13272
1489	13274
1488	13276
1487	13279
1487	13281
1486	13284
1486	13286
1486	13289
1486	13291
1486	13294
1485	13296
1485	13299
1486	13301
1486	13303
1486	13306
1487	13308
1487	13312
1487	13314
1487	13317
1487	13319
1487	13322
1486	13324
1485	13327
1483	13329
1484	13332
1487	13334
1488	13336
1489	13339
1491	13341
1494	13344
1494	13346
1494	13349
1494	13351
1493	13355
1492	13357
1489	13360
1488	13362
1487	13364
1486	13367
1487	13369
1487	13372
1487	13374
1487	13377
1486	13379
1486	13382
1486	13384
1486	13387
1486	13389
1485	13391
1484	13394
1484	13396
1485	13400
1485	13402
1486	13405
1486	13407
1487	13410
1487	13412
1489	13415
1490	13417
1490	13420
1489	13422
1489	13424
1488	13427
1487	13429
1486	13432
1486	13434
1488	13437
1489	13440
1489	13443
1488	13445
1488	13448
1487	13450
1486	13452
1485	13455
1484	13457
1484	13460
1484	13462
1485	13465
1486	13467
1486	13470
1486	13472
1486	13475
1485	13477
1485	13479
1488	13483
1489	13485
1489	13488
1488	13490
1489	13493
1489	13495
1491	13498
1492	13500
1492	13503
1490	13505
1490	13507
1491	13510
1491	13512
1491	13515
1490	13517
1489	13520
1489	13522
1488	13526
1488	13528
1489	13531
1489	13533
1489	13536
1489	13538
1489	13540
1489	13543
1490	13545
1490	13548
1489	13550
1488	13553
1488	13555
1488	13558
1488	13560
1488	13563
1489	13565
1489	13568
1489	13571
1488	13573
1486	13576
1485	13578
1487	13581
1489	13583
1488	13586
1488	13588
1489	13591
1489	13593
1490	13595
1490	13598
1491	13600
1494	13603
1498	13605
1498	13608
1495	13611
1493	13614
1492	13616
1492	13619
1492	13621
1491	13624
1491	13626
1490	13628
1490	13631
1490	13633
1490	13636
1491	13638
1492	13641
1493	13643
1493	13646
1493	13648
1491	13651
1490	13654
1487	13656
1486	13659
1488	13661
1489	13664
1489	13666
1489	13669
1489	13671
1488	13674
1488	13676
1488	13679
1487	13681
1486	13683
1485	13686
1486	13688
1486	13691
1487	13693
1487	13697
1487	13699
1487	13702
1487	13704
1488	13707
1490	13709
1491	13712
1490	13714
1488	13716
1486	13719
1485	13721
1485	13724
1485	13726
1485	13729
1484	13731
1483	13734
1481	13736
1481	13740
1483	13742
1486	13744
1488	13747
1488	13749
1487	13752
1487	13754
1489	13757
1491	13759
1492	13762
1491	13764
1490	13767
1490	13769
1490	13771
1493	13774
1496	13776
1497	13779
1495	13782
1492	13785
1490	13787
1489	13790
1489	13792
1489	13795
1487	13797
1486	13800
1485	13802
1483	13804
1482	13807
1482	13809
1483	13812
1482	13814
1482	13817
1482	13819
1482	13822
1484	13825
1486	13828
1487	13830
1487	13832
1487	13835
1486	13837
1487	13840
1488	13842
1489	13845
1490	13847
1490	13850
1490	13852
1490	13855
1490	13857
1489	13859
1490	13862
1490	13864
1492	13868
1492	13870
1491	13873
1490	13875
1489	13878
1490	13880
1490	13883
1488	13885
1485	13888
1485	13890
1486	13892
1487	13895
1487	13897
1487	13900
1486	13902
1486	13905
1487	13907
1489	13911
1489	13913
1490	13916
1490	13918
1491	13920
1491	13923
1490	13925
1488	13928
1486	13930
1486	13933
1486	13935
1485	13938
1485	13940
1485	13943
1485	13945
1487	13947
1488	13950
1488	13953
1488	13956
1488	13958
1488	13961
1487	13963
1487	13966
1487	13968
1487	13971
1488	13973
1488	13975
1488	13978
1489	13980
1489	13983
1488	13985
1487	13988
1485	13990
1482	13993
1480	13996
1479	13999
1481	14001
1483	14004
1484	14006
1485	14008
1486	14011
1488	14013
1491	14016
1493	14018
1495	14021
1494	14023
1492	14026
1491	14028
1490	14031
1488	14033
1487	14035
1487	14039
1487	14041
1487	14044
1486	14046
1486	14049
1487	14051
1488	14054
1489	14056
1489	14059
1489	14061
1490	14063
1490	14066
1489	14068
1489	14071
1489	14073
1490	14076
1491	14078
1489	14082
1487	14084
1488	14087
1490	14089
1490	14092
1491	14094
1492	14096
1494	14099
1496	14101
1499	14104
1498	14106
1495	14109
1491	14111
1487	14114
1486	14116
1487	14119
1490	14121
1492	14124
1491	14127
1490	14129
1488	14132
1490	14134
1495	14137
1500	14139
1502	14142
1504	14144
1502	14147
1498	14149
1493	14151
1489	14154
1487	14156
1486	14159
1485	14161
1483	14164
1481	14167
1481	14170
1482	14172
1482	14175
1483	14177
1483	14180
1483	14182
1483	14184
1483	14187
1482	14189
1480	14192
1480	14194
1481	14197
1482	14199
1483	14202
1484	14204
1483	14208
1484	14210
1485	14212
1486	14215
1486	14217
1484	14220
1484	14222
1484	14225
1484	14227
1485	14230
1488	14232
1489	14235
1489	14237
1487	14239
1485	14242
1485	14244
1484	14247
1485	14249
1483	14253
1481	14255
1480	14258
1481	14260
1483	14263
1485	14265
1484	14267
1483	14270
1484	14272
1485	14275
1485	14277
1484	14280
1481	14282
1481	14285
1483	14287
1484	14290
1485	14292
1486	14296
1486	14298
1485	14300
1484	14303
1484	14305
1484	14308
1483	14310
1483	14313
1483	14315
1483	14318
1484	14320
1482	14323
1481	14325
1482	14327
1483	14330
1484	14332
1484	14336
1483	14338
1483	14341
1484	14343
1485	14346
1485	14348
1485	14351
1483	14353
1481	14355
1481	14358
1481	14360
1482	14363
1483	14365
1482	14368
1482	14370
1482	14373
1483	14375
1484	14379
1484	14381
1484	14384
1485	14386
1486	14388
1485	14391
1484	14393
1483	14396
1483	14398
1483	14401
1483	14403
1484	14406
1484	14408
1484	14411
1482	14413
1481	14415
1481	14418
1480	14420
1480	14424
1479	14426
1478	14429
1478	14431
1480	14434
1481	14436
1482	14439
1483	14441
1485	14443
1486	14446
1487	14448
1486	14451
1486	14453
1487	14456
1486	14458
1485	14461
1483	14464
1484	14467
1484	14469
1484	14472
1483	14474
1483	14476
1483	14479
1484	14481
1484	14484
1483	14486
1481	14489
1480	14491
1481	14494
1483	14496
1483	14499
1483	14501
1482	14503
1480	14507
1479	14509
1477	14512
1478	14514
1480	14517
1481	14519
1482	14522
1482	14524
1484	14527
1486	14529
1487	14531
1487	14534
1485	14536
1484	14539
1484	14541
1484	14544
1484	14546
1484	14550
1483	14552
1482	14555
1483	14557
1484	14560
1484	14562
1483	14564
1481	14567
1480	14569
1481	14572
1482	14574
1483	14577
1483	14579
1483	14582
1482	14584
1480	14587
1479	14589
1479	14592
1480	14595
1479	14597
1479	14600
1480	14602
1481	14605
1482	14607
1483	14610
1480	14612
1476	14615
1478	14617
1484	14619
1487	14622
1486	14624
1485	14627
1483	14629
1482	14632
1482	14635
1482	14638
1483	14640
1483	14643
1483	14645
1484	14648
1484	14650
1483	14652
1483	14655
1482	14657
1481	14660
1481	14662
1481	14665
1481	14667
1482	14670
1483	14672
1484	14675
1483	14678
1481	14680
1480	14683
1481	14685
1480	14688
1480	14690
1480	14693
1479	14695
1479	14698
1481	14700
1485	14703
1488	14705
1488	14707
1486	14710
1482	14712
1481	14715
1479	14717
1480	14721
1483	14723
1486	14726
1487	14728
1486	14731
1482	14733
1478	14736
1476	14738
1477	14740
1479	14743
1481	14745
1482	14748
1483	14750
1483	14753
1483	14755
1482	14758
1482	14760
1485	14764
1486	14766
1485	14768
1485	14771
1486	14773
1485	14776
1483	14778
1483	14781
1483	14783
1483	14786
1482	14788
1481	14791
1481	14793
1481	14795
1480	14798
1480	14800
1480	14803
1480	14806
1480	14809
1480	14811
1480	14814
1481	14816
1482	14819
1482	14821
1482	14823
1482	14826
1483	14828
1481	14831
1479	14833
1480	14836
1482	14838
1483	14841
1482	14843
1481	14846
1482	14849
1483	14852
1484	14854
1482	14856
1481	14859
1480	14861
1479	14864
1477	14866
1477	14869
1480	14871
1482	14874
1484	14876
1485	14879
1484	14881
1484	14883
1484	14886
1484	14888
1486	14892
1488	14894
1488	14897
1486	14899
1485	14902
1485	14904
1487	14907
1488	14909
1489	14911
1489	14914
1489	14916
1488	14919
1487	14921
1487	14924
1486	14926
1486	14929
1487	14931
1488	14935
1488	14937
1487	14940
1486	14942
1486	14944
1488	14947
1488	14949
1488	14952
1485	14954
1484	14957
1485	14959
1486	14962
1483	14964
1482	14967
1486	14969
1490	14971
1491	14974
1490	14977
1488	14980
1487	14982
1485	14985
1485	14987
1484	14990
1484	14992
1483	14995
1483	14997
1483	14999
1482	15002
1482	15004
1482	15007
1482	15009
1482	15012
1482	15014
1483	15017
1484	15020
1485	15023
1486	15025
1486	15028
1486	15030
1487	15032
1487	15035
1486	15037
1485	15040
1485	15042
1487	15045
1487	15047
1487	15050
1487	15052
1486	15055
1485	15057
1484	15059
1483	15063
1483	15065
1483	15068
1483	15070
1484	15073
1484	15075
1484	15078
1483	15080
1483	15083
1483	15085
1483	15087
1483	15090
1483	15092
1484	15095
1485	15097
1485	15100
1484	15102
1483	15106
1482	15108
1481	15111
1481	15113
1484	15116
1487	15118
1488	15120
1489	15123
1486	15125
1484	15128
1483	15130
1485	15133
1486	15135
1486	15138
1486	15140
1486	15143
1486	15145
1484	15148
1484	15151
1483	15153
1482	15156
1481	15158
1482	15161
1483	15163
1483	15166
1482	15168
1482	15171
1481	15173
1479	15175
1478	15178
1477	15180
1478	15183
1479	15185
1478	15188
1477	15191
1477	15194
1477	15196
1479	15199
1479	15201
1479	15204
1478	15206
1477	15208
1476	15211
1477	15213
1478	15216
1478	15218
1478	15221
1478	15223
1478	15226
1478	15228
1480	15232
1481	15234
1482	15236
1481	15239
1479	15241
1478	15244
1478	15246
1477	15249
1477	15251
1478	15254
1478	15256
1478	15259
1478	15261
1476	15263
1474	15266
1473	15268
1476	15271
1479	15273
1480	15277
1479	15279
1478	15282
1477	15284
1477	15287
1479	15289
1480	15291
1479	15294
1478	15296
1479	15299
1478	15301
1477	15304
1476	15306
1476	15309
1476	15311
1474	15314
1473	15316
1474	15320
1476	15322
1478	15324
1479	15327
1480	15329
1480	15332
1478	15334
1477	15337
1478	15339
1480	15342
1480	15344
1480	15347
1480	15349
1482	15351
1483	15354
1484	15356
1484	15360
1484	15362
1483	15365
1482	15367
1481	15370
1480	15372
1480	15375
1479	15377
1480	15379
1481	15382
1481	15384
1480	15387
1479	15389
1478	15392
1477	15394
1476	15397
1476	15399
1477	15403
1475	15405
1474	15408
1475	15410
1480	15412
1483	15415
1482	15417
1480	15420
1479	15422
1478	15425
1477	15427
1478	15430
1481	15432
1484	15435
1484	15437
1483	15439
1482	15442
1482	15444
1482	15448
1483	15450
1483	15453
1483	15455
1483	15458
1483	15460
1483	15463
1484	15465
1484	15467
1485	15470
1486	15472
1485	15475
1484	15477
1483	15480
1483	15482
1483	15485
1483	15488
1483	15491
1483	15493
1484	15496
1486	15498
1488	15500
1487	15503
1486	15505
1487	15508
1488	15510
1487	15513
1486	15515
1485	15518
1487	15520
1489	15523
1489	15525
1488	15527
1486	15531
1485	15533
1485	15536
1485	15538
1485	15541
1486	15543
1487	15546
1488	15548
1488	15551
1489	15553
1489	15555
1487	15558
1486	15560
1485	15563
1485	15565
1485	15568
1486	15570
1487	15574
1488	15576
1489	15579
1491	15581
1492	15583
1493	15586
1494	15588
1493	15591
1492	15593
1491	15596
1491	15598
1490	15601
1490	15603
1490	15606
1490	15608
1490	15611
1490	15613
1493	15616
1494	15619
1494	15621
1493	15624
1492	15626
1492	15629
1491	15631
1490	15634
1489	15636
1489	15639
1489	15641
1489	15643
1489	15646
1489	15648
1489	15651
1489	15653
1490	15656
1491	15659
1491	15662
1490	15664
1490	15667
1489	15669
1489	15671
1490	15674
1490	15676
1490	15679
1489	15681
1489	15684
1490	15686
1493	15689
1495	15691
1495	15694
1493	15696
1493	15699
1493	15702
1492	15704
1491	15707
1491	15709
1490	15712
1491	15714
1491	15717
1491	15719
1490	15722
1488	15724
1488	15727
1490	15729
1491	15731
1491	15734
1490	15736
1490	15739
1491	15741
1491	15745
1492	15747
1491	15750
1491	15752
1492	15755
1492	15757
1491	15759
1491	15762
1491	15764
1491	15767
1492	15769
1493	15772
1493	15774
1494	15777
1494	15779
1494	15782
1496	15784
1497	15788
1496	15790
1494	15792
1492	15795
1491	15797
1490	15800
1490	15802
1489	15805
1489	15807
1490	15810
1491	15812
1490	15815
1489	15817
1490	15819
1491	15822
1492	15824
1491	15827
1491	15830
1491	15833
1490	15835
1490	15838
1491	15840
1493	15843
1494	15845
1494	15847
1493	15850
1493	15852
1492	15855
1491	15857
1491	15860
1491	15862
1492	15865
1492	15867
1494	15870
1497	15873
1498	15876
1496	15878
1492	15880
1489	15883
1490	15885
1488	15888
1487	15890
1487	15893
1488	15895
1488	15898
1487	15900
1487	15903
1485	15905
1484	15907
1485	15910
1487	15912
1490	15916
1492	15918
1494	15921
1495	15923
1495	15926
1494	15928
1493	15931
1491	15933
1492	15935
1492	15938
1491	15940
1489	15943
1488	15945
1489	15948
1491	15950
1491	15953
1492	15955
1492	15959
1491	15961
1490	15963
1489	15966
1490	15968
1490	15971
1490	15973
1490	15976
1490	15978
1489	15981
1489	15983
1488	15986
1488	15988
1488	15991
1489	15993
1489	15995
1488	15998
1489	16001
1488	16004
1487	16006
1487	16009
1487	16011
1488	16014
1489	16016
